Wavelength (nm),Absorbance (AU),Std.Dev.
190,1.47695684432983,0.827313871627631
191,1.77662038803101,0.615875781725199
192,0.851036548614502,0.400900018951499
193,1.29503107070923,0.672669406810935
194,1.55933141708374,0.476938568317995
195,1.63825225830078,0.685054243404309
196,1.63945341110229,0.463792140310789
197,1.12803173065186,0.223101254863963
198,1.2146782875061,0.209340015733973
199,1.3564600944519,0.331496582381869
200,1.69068479537964,0.367602823625581
201,2.09330654144287,0.413315585175806
202,2.38234996795654,0.790993923313416
203,3.36864805221558,1.30103343088533
204,3.85088872909546,0.876132776797059
205,3.34584379196167,0.680629734832016
206,3.96452236175537,1.16673351277991
207,3.99999952316284,0.728785242501178
208,3.79509735107422,0.466465788704006
209,3.53879308700562,0.454310477816555
210,3.99999952316284,0.606526294160288
211,3.98373031616211,0.563989997071646
212,3.79684686660767,1.03876875547147
213,3.99999952316284,0.592051435555856
214,3.82155275344849,0.27759808980411
215,3.55627155303955,0.367332916684154
216,3.99999952316284,0.731564602463873
217,3.99755668640137,0.740334858780133
218,3.84274244308472,0.34351687762735
219,3.44942760467529,0.309211209799427
220,3.93987417221069,0.262468317935559
221,3.52163362503052,0.396219700758974
222,3.75979232788086,0.709713059590371
223,3.99999952316284,0.686444946837736
224,3.87326002120972,0.446253802285972
225,3.859206199646,0.473607642694615
226,3.81898307800293,0.267050117732345
227,3.64193248748779,0.200007057065436
228,3.74827289581299,0.191704964612373
229,3.37646245956421,0.104215737546652
230,3.20656633377075,0.0430871891728747
231,3.16047668457031,0.0444067570055394
232,2.96220397949219,0.029813659037646
233,2.83774566650391,0.0165912371670695
234,2.73792457580566,0.0160121634859672
235,2.6259183883667,0.0132219674453623
236,2.55019474029541,0.00649787967284462
237,2.47740793228149,0.00602117307379811
238,2.45298767089844,0.00801398806746575
239,2.429771900177,0.00653632096732638
240,2.42635011672974,0.0074916769575728
241,2.45580148696899,0.00556324651616496
242,2.46966886520386,0.00439665001549121
243,2.47097492218018,0.00862649401565174
244,2.56872606277466,0.0138378962245545
245,2.65649175643921,0.0201012409301608
246,2.75369119644165,0.019255406846528
247,2.7728762626648,0.0547702707885935
248,2.97630453109741,0.0659920735078777
249,3.12063264846802,0.0690551229135851
250,3.16246032714844,0.0784660524476589
251,3.36983966827393,0.124042659681653
252,3.42787981033325,0.172196521003483
253,3.73764944076538,0.208317056655834
254,3.79616832733154,0.142778647519508
255,3.45107698440552,0.123023621314637
256,3.35477018356323,0.0887221945604209
257,3.32032871246338,0.107235278277377
258,3.39946126937866,0.128394759368903
259,3.55936336517334,0.12916123573617
260,3.53662967681885,0.189875495673933
261,3.36472177505493,0.192429899852964
262,3.42703342437744,0.228599076642485
263,3.51433658599854,0.12622235590371
264,3.39425897598267,0.10860938090068
265,3.42547988891602,0.106523677432577
266,3.10373735427856,0.0899180229681024
267,3.16093730926514,0.105845590517425
268,3.67603015899658,0.209353682158682
269,3.50059270858765,0.14407855095473
270,3.21136999130249,0.13734510540429
271,3.24446105957031,0.109757979048649
272,3.09764623641968,0.0736512016990813
273,2.90323352813721,0.039746213720642
274,2.98395776748657,0.0566606157475551
275,3.04638624191284,0.0557357594045673
276,3.01140260696411,0.0389241630037905
277,2.76979207992554,0.0327630897163257
278,2.52407121658325,0.0224410259058555
279,2.20479297637939,0.0125141421426617
280,1.93901920318604,0.00428399844250352
281,1.67994737625122,0.00183092752650901
282,1.47289419174194,0.000806716029866162
283,1.30802917480469,0.000617262340034065
284,1.16836214065552,0.000543818511257294
285,1.05514574050903,0.000435694542258732
286,0.965177059173584,0.000466267748736497
287,0.891608238220215,0.000345177409328972
288,0.831003189086914,0.000296787369807586
289,0.780893325805664,0.000403285854636438
290,0.741010189056397,0.000279138370867013
291,0.706965446472168,0.00024211685506811
292,0.678275585174561,0.000247213280347828
293,0.655561923980713,0.000373022001246098
294,0.637150287628174,0.000350786252825093
295,0.620612621307373,0.000257159831146533
296,0.607966423034668,0.000269652150774553
297,0.598423004150391,0.000181609239481623
298,0.589614868164063,0.000177398804028513
299,0.582574367523193,0.000152811244573231
300,0.578696727752686,0.000240700293918265
301,0.574542999267578,0.000317921319193018
302,0.571645736694336,0.000247242710500354
303,0.570917129516602,0.000276243087619502
304,0.569822788238525,0.000297607513408944
305,0.57026481628418,0.000364817511474769
306,0.571731567382813,0.000320621844471007
307,0.573638916015625,0.000353667905450052
308,0.575776100158691,0.000511937489604822
309,0.578752994537354,0.000247441272473598
310,0.581270694732666,0.000255328377238182
311,0.584334850311279,0.000299563053854328
312,0.588451385498047,0.00019991707074362
313,0.592290878295898,0.000176050448585108
314,0.59593391418457,0.00017481659237319
315,0.600057125091553,0.000157835260243908
316,0.604112148284912,0.000210150526358346
317,0.607460021972656,0.000190944556363027
318,0.61014461517334,0.000167976675844604
319,0.613899230957031,0.000254707824903097
320,0.617138862609863,0.000422330232110007
321,0.619446277618408,0.000381374347206949
322,0.621423721313477,0.000221153763437435
323,0.623486042022705,0.000327720018221288
324,0.624787330627441,0.000213141409288664
325,0.625714778900147,0.000237669722383212
326,0.626770973205566,0.000451747782686995
327,0.626327991485596,0.000436378691824439
328,0.625123500823975,0.00040719101428201
329,0.623960494995117,0.000383125526307679
330,0.622090816497803,0.000211234017310138
331,0.61943244934082,0.000221745172566736
332,0.616532802581787,0.000352679026048425
333,0.613357067108154,0.000491814939714029
334,0.609221458435059,0.000251697761107832
335,0.604528427124023,0.000264159178335386
336,0.599319458007813,0.000296296649614432
337,0.594196319580078,0.000249359847952335
338,0.588448524475098,0.000374860733343364
339,0.581630706787109,0.00030484777943616
340,0.574288845062256,0.000342240216329298
341,0.567585945129395,0.000220317344377653
342,0.559517383575439,0.000235960688787635
343,0.550900459289551,0.000225228720384606
344,0.542250156402588,0.000189869826430835
345,0.53316593170166,0.000283059790940691
346,0.523616790771484,0.000263690517349305
347,0.513547420501709,0.000283483600669696
348,0.504040718078613,0.000256011379021645
349,0.493781566619873,0.000258324302492977
350,0.483315467834473,0.000226151553298886
351,0.472426891326904,0.000166366290949681
352,0.46159553527832,0.000174551059891921
353,0.450601100921631,0.000217546469292094
354,0.438819408416748,0.000226215890003235
355,0.427937984466553,0.000201363086970876
356,0.416989326477051,0.000168409271657136
357,0.405318260192871,0.000219602019723881
358,0.393228054046631,0.000289226009705674
359,0.382087707519531,0.000310476286456002
360,0.370877265930176,0.000284399688498546
361,0.358647346496582,0.000406108521507116
362,0.347354412078857,0.000385378835460268
363,0.336233615875244,0.000292689468463414
364,0.325584888458252,0.000388369156012707
365,0.315679550170898,0.000388369156012707
366,0.306617736816406,0.000242372157616162
367,0.29857063293457,0.00020281673099571
368,0.289656639099121,0.000211419078167824
369,0.280792713165283,0.000150725804544497
370,0.271429061889648,0.000245381717404078
371,0.262354850769043,0.000282274709871293
372,0.253396987915039,0.000183373493487878
373,0.244744300842285,0.000199575577086585
374,0.236150741577148,0.000240764520459721
375,0.228273391723633,0.000247183846691294
376,0.219854354858398,0.000250858042336841
377,0.211423873901367,0.000217889016319196
378,0.203567981719971,0.000186193767463308
379,0.195813655853271,0.000173343260489625
380,0.188457489013672,0.000236922337494846
381,0.181606292724609,0.000206500771396442
382,0.174629211425781,0.000177762436747471
383,0.167518615722656,0.00019706705398342
384,0.160875797271729,0.000216536578561687
385,0.154822826385498,0.000154986014106192
386,0.148463249206543,0.000115096677096576
387,0.142236709594727,0.000124278071378292
388,0.13620662689209,0.000137176694010615
389,0.130833148956299,0.000130063836068972
390,0.125097751617432,0.000131669237125441
391,0.119694709777832,0.000144395865723865
392,0.114534854888916,0.000143758297528825
393,0.109779834747314,0.000152662378249952
394,0.104875564575195,0.000148188223467006
395,0.100437164306641,0.000189548618298414
396,0.0961236953735352,0.000145503325281143
397,0.0920925140380859,0.00014957493161928
398,0.087435245513916,0.000176127923078855
399,0.0836787223815918,0.000177726618694482
400,0.0801029205322266,0.000214120591995196
401,0.0767145156860352,0.00020470480915085
402,0.0728635787963867,0.000214260716340374
403,0.0694847106933594,0.000191282439999925
404,0.0664548873901367,0.000172248472159368
405,0.0631160736083984,0.00011168377271325
406,0.0599560737609863,0.000157385158775488
407,0.057220458984375,0.000183824280631454
408,0.0542473793029785,0.000176287929137479
409,0.0518550872802734,0.000215467089242652
410,0.0493183135986328,0.000210949654582191
411,0.0467705726623535,0.00020612165218293
412,0.0447144508361816,0.000195816997798318
413,0.0421929359436035,0.000160662282851382
414,0.0400514602661133,0.00017867591617684
415,0.0379743576049805,0.000150372395324004
416,0.036250114440918,0.000170774287019594
417,0.0342864990234375,0.000180725686414714
418,0.0323085784912109,0.000198662057496479
419,0.0306425094604492,0.000195821642358934
420,0.0292172431945801,0.000185076712360502
421,0.027503490447998,0.00019322204198222
422,0.0258173942565918,0.000203930269291415
423,0.0245957374572754,0.000144191015262842
424,0.0233831405639648,0.000126468865043451
425,0.0218644142150879,0.000203416742063826
426,0.020932674407959,0.000238368982878566
427,0.0195837020874023,0.00020569320243138
428,0.0184483528137207,0.000152864800960364
429,0.0175552368164062,0.0001465744993008
430,0.0161399841308594,0.000119620567391204
431,0.0155191421508789,0.000161557045502446
432,0.0145359039306641,0.000159941731504843
433,0.0138130187988281,0.000158837599538589
434,0.0126819610595703,0.000174264247888654
435,0.0119304656982422,0.000137060618213693
436,0.0111660957336426,0.000108681220511756
437,0.010441780090332,0.000165197754286789
438,0.00992012023925781,0.000152397036403184
439,0.00910234451293945,0.000156649534147202
440,0.00842905044555664,0.000198881684878484
441,0.00785636901855469,0.000161852327432032
442,0.00728797912597656,0.000109196750352719
443,0.00673389434814453,0.000124223172576542
444,0.00645065307617188,0.000128154809994067
445,0.00593233108520508,0.000121798062712911
446,0.00537538528442383,0.000121586930341908
447,0.00497865676879883,0.000107581479946185
448,0.004486083984375,0.000132310067718694
449,0.00425529479980469,0.000124226833251448
450,0.0037846565246582,0.000135105731427585
451,0.00359916687011719,0.000143403572834807
452,0.00315713882446289,0.000135579487451209
453,0.00282001495361328,0.000121641149711534
454,0.00254583358764648,0.000119108157174918
455,0.00219297409057617,0.00018821482044211
456,0.00209379196166992,0.000173809597013771
457,0.00190877914428711,0.00015584917550487
458,0.00147104263305664,0.000123241882165147
459,0.00109577178955078,0.000174279904350469
460,0.0011296272277832,0.000160854638636062
461,0.000895500183105469,0.0000954103373332536
462,0.000779628753662109,0.0000960184763046789
463,0.000352382659912109,0.0000961391694720075
464,0.00042724609375,0.0000945581430291948
465,0.000263690948486328,0.000116759885372611
466,0.000134944915771484,0.000108331273805522
467,-0.00000286102294921875,0.000133575697862228
468,-0.000101566314697266,0.000132368483521023
469,-0.000148296356201172,0.000127546586511017
470,-0.000363349914550781,0.0000842936970217881
471,-0.0004119873046875,0.00011468305403301
472,-0.000505924224853516,0.000144197322693359
473,-0.000641345977783203,0.000118633788452469
474,-0.000695228576660156,0.00012146344431478
475,-0.000887870788574219,0.000130548922693843
476,-0.000746250152587891,0.0000950067374860616
477,-0.000973701477050781,0.000132773249581626
478,-0.00119876861572266,0.000117288371596107
479,-0.00101947784423828,0.000100281019727081
480,-0.00119829177856445,0.0000836587658516316
481,-0.00109529495239258,0.000120397369393425
482,-0.00128459930419922,0.000136302047941752
483,-0.00126981735229492,0.0000986396184074471
484,-0.00122594833374023,0.0000777873270584309
485,-0.0013575553894043,0.0000688299201040883
486,-0.00142955780029297,0.0000699814375057542
487,-0.00137186050415039,0.0000784436981440841
488,-0.00140380859375,0.0000854683220319945
489,-0.0012969970703125,0.0000944306136988036
490,-0.00146245956420898,0.0000848100162066439
491,-0.0015106201171875,0.0000838894667323823
492,-0.0014958381652832,0.0000666293554901224
493,-0.00157690048217773,0.0000706025005700363
494,-0.00170755386352539,0.000102181207549888
495,-0.00167226791381836,0.0000925727488381728
496,-0.0015106201171875,0.000102585394643753
497,-0.00158786773681641,0.000101741898685982
498,-0.00151968002319336,0.000103197520369484
499,-0.00163602828979492,0.0000775399387396288
500,-0.00164413452148437,0.000087429103970306
501,-0.00149869918823242,0.000106093856698405
502,-0.001556396484375,0.0000966980611435797
503,-0.00163507461547852,0.0000824059596800351
504,-0.00151920318603516,0.0000782507065762747
505,-0.00150775909423828,0.0000817591504625359
506,-0.00145769119262695,0.0000709334340341935
507,-0.00146770477294922,0.000108240984604903
508,-0.00137996673583984,0.0000720844685414562
509,-0.0016636848449707,0.0000631138607604541
510,-0.00142431259155273,0.000103876104768296
511,-0.00154590606689453,0.0000970430981034086
512,-0.00144386291503906,0.0000944956029771048
513,-0.00147151947021484,0.000087468105223069
514,-0.00148582458496094,0.0000929722412639919
515,-0.00143051147460937,0.0000792783900984488
516,-0.00139522552490234,0.000115148028683936
517,-0.00146961212158203,0.00011789358774969
518,-0.00146627426147461,0.0000698480991436806
519,-0.00139951705932617,0.000114218177197112
520,-0.00130939483642578,0.000118111322417218
521,-0.00129795074462891,0.000109695349271547
522,-0.00131320953369141,0.000116907791147095
523,-0.00137996673583984,0.000112729387120317
524,-0.00141763687133789,0.000107663874972509
525,-0.00128650665283203,0.0000801015464727902
526,-0.00134372711181641,0.0000878908029859118
527,-0.00123977661132812,0.0000837714815368567
528,-0.00115489959716797,0.0000945004152197671
529,-0.00131893157958984,0.000113971063567561
530,-0.00117826461791992,0.000089381214247589
531,-0.00116443634033203,0.0000920530397999891
532,-0.00133991241455078,0.0000904533821211195
533,-0.00128936767578125,0.0000880123080881307
534,-0.00126123428344727,0.0000847228396600786
535,-0.00121212005615234,0.0000850496251424752
536,-0.00117921829223633,0.0000719660863132486
537,-0.00117588043212891,0.000085593266069571
538,-0.00119733810424805,0.0000921764585128041
539,-0.00108051300048828,0.000072374079346032
540,-0.00110101699829102,0.0000588850452195571
541,-0.00110483169555664,0.0000597722557901198
542,-0.00115346908569336,0.0000750469582376852
543,-0.00105714797973633,0.0000749165656223024
544,-0.00108194351196289,0.0000616928517191762
545,-0.000992298126220703,0.0000846006415791397
546,-0.00101757049560547,0.0000795761073507244
547,-0.00105667114257812,0.0000557430591967037
548,-0.00112485885620117,0.0000688712003919001
549,-0.000959396362304688,0.0000748011457486251
550,-0.000997543334960938,0.0000910097151355066
551,-0.00121212005615234,0.0000822789390588308
552,-0.00105476379394531,0.0000676033348024265
553,-0.00101423263549805,0.0000762507196999405
554,-0.00100564956665039,0.0000863351830274311
555,-0.000929832458496094,0.0000965710032669207
556,-0.000926017761230469,0.0000981404549193415
557,-0.0010533332824707,0.0000968766010324209
558,-0.000856876373291016,0.0000710391351753562
559,-0.0010371208190918,0.0000651698771182218
560,-0.00102329254150391,0.0000753629022722486
561,-0.000881671905517578,0.0000638855028485025
562,-0.000984668731689453,0.0000577544095178214
563,-0.000947952270507813,0.0000824183750984364
564,-0.000947952270507813,0.0000852418943134148
565,-0.000825405120849609,0.0000705718994140625
566,-0.000879764556884766,0.0000728078970255529
567,-0.000960350036621094,0.0000559791389265557
568,-0.000818252563476563,0.0000509212077110767
569,-0.000920772552490234,0.0000576440707525708
570,-0.000889301300048828,0.0000795761073507244
571,-0.000706672668457031,0.0000766744661035224
572,-0.00078582763671875,0.0000568127011305958
573,-0.0008544921875,0.0000514376688264075
574,-0.000797748565673828,0.0000604878789378068
575,-0.000768661499023438,0.0000677561944096206
576,-0.000820636749267578,0.0000679154060581353
577,-0.000789165496826172,0.0000760790659911313
578,-0.000818252563476563,0.0000649059277617399
579,-0.000704288482666016,0.0000649129336366334
580,-0.000808238983154297,0.0000468976072157459
581,-0.000835418701171875,0.0000540732075926909
582,-0.000792026519775391,0.0000654066946379681
583,-0.000630855560302734,0.0000800532762750376
584,-0.000671863555908203,0.0000673556749362577
585,-0.000774383544921875,0.0000630814290733177
586,-0.000736236572265625,0.0000504377871015036
587,-0.000750064849853516,0.0000602628604048904
588,-0.000705718994140625,0.0000850843725512333
589,-0.000735282897949219,0.0000790500520063481
590,-0.000792980194091797,0.0000681526921108355
591,-0.000792026519775391,0.0000674079782374279
592,-0.000733852386474609,0.0000498209266069595
593,-0.000692367553710938,0.0000483443275874325
594,-0.00075531005859375,0.0000516780176179242
595,-0.000690460205078125,0.000077611747885498
596,-0.000685214996337891,0.0000760312325591841
597,-0.000687599182128906,0.0000630868355123185
598,-0.000705718994140625,0.0000825630836983945
599,-0.000716686248779297,0.0000870642497924749
600,-0.000723838806152344,0.0000592373018723456
601,-0.000603199005126953,0.0000713298025750331
602,-0.000714778900146484,0.0000512139534997583
603,-0.000650405883789063,0.000059503469428278
604,-0.000631332397460938,0.0000673674889085745
605,-0.000666618347167969,0.0000521379514054931
606,-0.000638008117675781,0.0000529879593040792
607,-0.000722885131835938,0.0000433987308631717
608,-0.000698566436767578,0.0000587884331032656
609,-0.000708580017089844,0.0000727813473137244
610,-0.000763893127441406,0.0000644418560277029
611,-0.000704288482666016,0.0000626002020465119
612,-0.000689506530761719,0.0000743743690809068
613,-0.000707626342773438,0.0000605104287086126
614,-0.000638484954833984,0.0000620163343009104
615,-0.000720024108886719,0.0000727438488711612
616,-0.000749588012695313,0.0000686926916525579
617,-0.000594615936279297,0.0000697520028897686
618,-0.000710487365722656,0.0000749772415580786
619,-0.000747203826904297,0.0000586732573925145
620,-0.000637531280517578,0.0000628340393448987
621,-0.000667572021484375,0.0000605742741389871
622,-0.000653266906738281,0.0000698025106358863
623,-0.00054931640625,0.0000658553375619942
624,-0.000677585601806641,0.0000632775665189119
625,-0.000739574432373047,0.0000854204227257672
626,-0.000560760498046875,0.0000593255183052436
627,-0.000630378723144531,0.0000680825950415062
628,-0.000664234161376953,0.0000753990981849725
629,-0.000662326812744141,0.000085272563821399
630,-0.000691413879394531,0.0000541383446671671
631,-0.000661373138427734,0.0000698773903358118
632,-0.000702381134033203,0.00008428965082722
633,-0.000664710998535156,0.0000696688298286018
634,-0.000671863555908203,0.0000532255794631204
635,-0.000643730163574219,0.000048992552544407
636,-0.000636100769042969,0.0000677427700309838
637,-0.00057220458984375,0.0000644894712145491
638,-0.000598430633544922,0.000055750196918677
639,-0.0006103515625,0.000053629873275248
640,-0.000674247741699219,0.0000706668807416862
641,-0.000619888305664063,0.0000734236327401405
642,-0.000670909881591797,0.0000758575835241099
643,-0.000613689422607422,0.000073077530850017
644,-0.000558376312255859,0.0000678081887740193
645,-0.000699043273925781,0.0000931188621424419
646,-0.000746726989746094,0.0000947287151556623
647,-0.000557422637939453,0.0000684556166496586
648,-0.000739574432373047,0.000100081292710602
649,-0.000663280487060547,0.0000638730448505308
650,-0.000662803649902344,0.0000461584772901014
651,-0.000642776489257813,0.0000578586434644877
652,-0.000608444213867188,0.0000691019142859539
653,-0.000650882720947266,0.0000660415160512846
654,-0.000697135925292969,0.0000731739207847487
655,-0.000640392303466797,0.0000885788394154894
656,-0.000673770904541016,0.000050198294374407
657,-0.000238895416259766,0.0000440732720513412
658,-0.000545024871826172,0.0000479179826522724
659,-0.000540733337402344,0.0000669408723847786
660,-0.00060272216796875,0.0000519358634450517
661,-0.000627994537353516,0.000052092140765928
662,-0.000629901885986328,0.0000660690534301739
663,-0.000635623931884766,0.0000596084593505938
664,-0.000490665435791016,0.0000637625963288857
665,-0.000557422637939453,0.0000625602355766373
666,-0.000612735748291016,0.0000698318209502731
667,-0.000569820404052734,0.0000744186845675923
668,-0.000530719757080078,0.0000599735289259894
669,-0.000644683837890625,0.0000718142723029579
670,-0.000537395477294922,0.0000601977404258375
671,-0.000567436218261719,0.0000433581082216999
672,-0.000476360321044922,0.0000517154025160882
673,-0.000528335571289063,0.000051123970886659
674,-0.000551700592041016,0.0000399527226235003
675,-0.000535488128662109,0.0000556726526833814
676,-0.000589370727539063,0.0000729810136080454
677,-0.000512123107910156,0.0000507221168489661
678,-0.000470638275146484,0.0000569885242236839
679,-0.000623226165771484,0.000062785168719685
680,-0.000490665435791016,0.0000709254199529764
681,-0.000542640686035156,0.0000768507073463736
682,-0.000554084777832031,0.0000656253364682442
683,-0.000524044036865234,0.0000576490010938264
684,-0.000471115112304688,0.0000475739168595769
685,-0.000555515289306641,0.0000485238920126198
686,-0.000481605529785156,0.0000590979977803459
687,-0.000553607940673828,0.0000713042969012816
688,-0.000494480133056641,0.0000750893627862247
689,-0.000524997711181641,0.0000762745713430497
690,-0.000491142272949219,0.0000620694736300391
691,-0.000528812408447266,0.000057933261803713
692,-0.000519752502441406,0.0000660931392250011
693,-0.000518798828125,0.0000446498867443833
694,-0.000511646270751953,0.0000463857423215292
695,-0.000601291656494141,0.0000499667553799965
696,-0.000558853149414063,0.0000436442775862504
697,-0.000514030456542969,0.0000413338335662257
698,-0.000430107116699219,0.0000387310963404952
699,-0.000486850738525391,0.0000573554037237354
700,-0.000539779663085938,0.0000648638766217497
701,-0.000575065612792969,0.0000496700922628174
702,-0.000534534454345703,0.0000498540033123717
703,-0.000494480133056641,0.00006842073226516
704,-0.000607490539550781,0.000076223877680166
705,-0.000576496124267578,0.0000650773545774999
706,-0.000554561614990234,0.0000453797683829408
707,-0.000542163848876953,0.0000468321094263905
708,-0.000628471374511719,0.0000590123310257148
709,-0.000497817993164063,0.0000502673219418007
710,-0.000521183013916016,0.0000521030517144099
711,-0.000541210174560547,0.0000585646498087664
712,-0.000507831573486328,0.0000667129097186281
713,-0.000538825988769531,0.000071962926788
714,-0.000529289245605469,0.0000651681326257603
715,-0.000531673431396484,0.0000479274718315629
716,-0.000523090362548828,0.0000695577777085822
717,-0.000553131103515625,0.0000664054595763484
718,-0.000584602355957031,0.0000614176625703325
719,-0.000510692596435547,0.0000741186573838459
720,-0.000483989715576172,0.0000560643709438289
721,-0.000489711761474609,0.000048663095151678
722,-0.000523090362548828,0.0000657897050133025
723,-0.000457763671875,0.0000431234558915601
724,-0.000466823577880859,0.0000444380509386322
725,-0.000522136688232422,0.000042150894414157
726,-0.000483036041259766,0.0000577583462895459
727,-0.000415325164794922,0.0000543845269370394
728,-0.000451564788818359,0.0000567736666341294
729,-0.000490188598632813,0.0000581321017276602
730,-0.000490665435791016,0.0000639406448055128
731,-0.000456333160400391,0.0000583224672371699
732,-0.000482559204101563,0.0000667077971611977
733,-0.000519752502441406,0.0000551875926505414
734,-0.000455856323242188,0.0000487249651835741
735,-0.000496864318847656,0.0000520189783776066
736,-0.00048065185546875,0.000059567439865495
737,-0.000467777252197266,0.0000634498092778683
738,-0.000489711761474609,0.0000602675765098275
739,-0.000466823577880859,0.0000538847087345758
740,-0.000497817993164063,0.0000463219750783338
741,-0.000440597534179688,0.0000549429395102052
742,-0.000495433807373047,0.0000544795582984869
743,-0.000459194183349609,0.0000564584055392877
744,-0.000388622283935547,0.0000465582101764882
745,-0.000436782836914063,0.0000541866215761435
746,-0.000478267669677734,0.0000557267409705938
747,-0.000474452972412109,0.0000674855148837729
748,-0.000429153442382813,0.0000666498274351436
749,-0.000484943389892578,0.0000570881824633222
750,-0.000524044036865234,0.0000348189091940473
751,-0.000475406646728516,0.0000370485901922318
752,-0.000509262084960938,0.0000399747694304174
753,-0.000476360321044922,0.0000402150731692589
754,-0.000411510467529297,0.0000513325776160872
755,-0.000462532043457031,0.0000472056745125138
756,-0.000422954559326172,0.0000571747438284366
757,-0.000424861907958984,0.000051369107354094
758,-0.000403881072998047,0.0000565107358968205
759,-0.000418663024902344,0.0000586868192082035
760,-0.000426292419433594,0.0000529085154320111
761,-0.000342845916748047,0.0000483208057996403
762,-0.000433921813964844,0.0000641625106084165
763,-0.000397205352783203,0.0000739512788378985
764,-0.000433921813964844,0.0000608018798149491
765,-0.000383377075195312,0.0000540469204341857
766,-0.000401020050048828,0.0000560055341260075
767,-0.000362396240234375,0.0000678919667455966
768,-0.000386238098144531,0.0000611282175614018
769,-0.000434398651123047,0.0000573890903290444
770,-0.00043487548828125,0.000052784818071879
771,-0.000285625457763672,0.0000582493233591741
772,-0.000418663024902344,0.0000638053732753839
773,-0.000378608703613281,0.0000551123510967225
774,-0.000386238098144531,0.0000559395227749351
775,-0.000406265258789063,0.0000492852206524436
776,-0.000396251678466797,0.0000559659366585448
777,-0.000424385070800781,0.0000571329719572073
778,-0.000382423400878906,0.0000521935245551147
779,-0.000387191772460937,0.0000494717115377157
780,-0.000386238098144531,0.0000480151578374647
781,-0.000448226928710938,0.0000539911493304223
782,-0.000377655029296875,0.0000652099875643243
783,-0.000399589538574219,0.000069438362318312
784,-0.000391006469726562,0.0000348939254312052
785,-0.000368118286132812,0.0000427181960724996
786,-0.000348091125488281,0.0000510583281727318
787,-0.000368118286132812,0.0000558846232791321
788,-0.000347614288330078,0.0000642598888866495
789,-0.000447750091552734,0.0000622651470726807
790,-0.000410556793212891,0.0000486771103476154
791,-0.000391483306884766,0.0000536722533626829
792,-0.000456809997558594,0.000059516842067856
793,-0.000354290008544922,0.0000813017842289467
794,-0.000424385070800781,0.0000587758618639212
795,-0.000453948974609375,0.000062443824035496
796,-0.000381946563720703,0.0000752693156008411
797,-0.0003814697265625,0.0000700171680106496
798,-0.000425338745117188,0.000058206369504908
799,-0.000421524047851563,0.0000609923003659209
800,-0.000390529632568359,0.0000520637615986061
801,-0.000401973724365234,0.0000509647248734432
802,-0.0004119873046875,0.0000471152755839576
803,-0.000368118286132812,0.00006144172143897
804,-0.0003509521484375,0.000048083772925432
805,-0.0003509521484375,0.0000563283760991969
806,-0.000327110290527344,0.0000704203085864929
807,-0.000366687774658203,0.0000684240553537394
808,-0.000349044799804687,0.0000507971471223288
809,-0.000391960144042969,0.0000611151975085246
810,-0.000374794006347656,0.0000554742193301215
811,-0.000295639038085937,0.0000405991208858868
812,-0.000420093536376953,0.0000385545769424349
813,-0.000376224517822266,0.0000502616675112558
814,-0.000391006469726562,0.0000643235475703921
815,-0.000276565551757812,0.0000734901824246143
816,-0.000339984893798828,0.000050685120814647
817,-0.000337600708007812,0.0000556420133682523
818,-0.000358104705810547,0.0000598843686540207
819,-0.000433921813964844,0.0000614694699709997
820,-0.000316143035888672,0.0000644030324397496
821,-0.000331401824951172,0.000055501878841215
822,-0.000319480895996094,0.0000467762426749971
823,-0.000353813171386719,0.0000479215413147015
824,-0.000373363494873047,0.0000587574836759543
825,-0.000268459320068359,0.0000667009798083785
826,-0.000357151031494141,0.0000668729051904992
827,-0.000322818756103516,0.0000571190412116217
828,-0.000321388244628906,0.0000637340624140133
829,-0.000322818756103516,0.0000554086008907664
830,-0.000451564788818359,0.0000632146529367583
831,-0.000339984893798828,0.0000494556228020925
832,-0.000360965728759766,0.0000500610891884636
833,-0.000364303588867187,0.0000610742592721862
834,-0.000335216522216797,0.0000663249462781555
835,-0.000376701354980469,0.0000577327524748504
836,-0.000345230102539062,0.0000612062797154237
837,-0.000384330749511719,0.0000531143942642849
838,-0.000397682189941406,0.0000742596374252171
839,-0.000382900238037109,0.0000728843685530734
840,-0.000371456146240234,0.0000569825391867287
841,-0.000348091125488281,0.000061871343930468
842,-0.000238418579101562,0.0000499565157078125
843,-0.000437736511230469,0.0000631750751883609
844,-0.000335216522216797,0.0000479962122750651
845,-0.000346183776855469,0.0000560937662099914
846,-0.000278949737548828,0.0000610426063759051
847,-0.000323772430419922,0.0000651384691057915
848,-0.000319480895996094,0.0000593006008772679
849,-0.000308990478515625,0.0000603071772308423
850,-0.000314712524414062,0.0000467616577629318
851,-0.000335693359375,0.000049249453629362
852,-0.000327110290527344,0.0000562395013513907
853,-0.000296115875244141,0.0000658328916851102
854,-0.000337600708007812,0.0000557144991644994
855,-0.000307559967041016,0.0000574059262187841
856,-0.000356197357177734,0.0000549832737174972
857,-0.000294208526611328,0.0000523207928599978
858,-0.000334739685058594,0.0000643306168689704
859,-0.000361919403076172,0.0000637055157187056
860,-0.00029754638671875,0.0000587207100442137
861,-0.000349521636962891,0.0000672898162635069
862,-0.000341415405273437,0.0000640915971134862
863,-0.000312328338623047,0.0000626601039542206
864,-0.000298023223876953,0.0000690492476452071
865,-0.000428199768066406,0.0000606558607419509
866,-0.000317573547363281,0.0000726265414496112
867,-0.000311851501464844,0.0000603825353274434
868,-0.000350475311279297,0.0000791420408975831
869,-0.000355243682861328,0.0000563334215911051
870,-0.000313282012939453,0.0000668405965621498
871,-0.000423431396484375,0.0000660518439137375
872,-0.000377178192138672,0.0000488938321632713
873,-0.0002899169921875,0.0000534982816512987
874,-0.000438690185546875,0.0000773755532975096
875,-0.000353336334228516,0.0000768211152361712
876,-0.000365257263183594,0.0000702473549547915
877,-0.000276088714599609,0.000055595000289033
878,-0.000383853912353516,0.0000830491003617438
879,-0.000356197357177734,0.0000757886125288419
880,-0.000323772430419922,0.0000605921012788125
881,-0.000390052795410156,0.0000595760276761455
882,-0.000347614288330078,0.0000611300773425776
883,-0.000341415405273437,0.0000615877232388404
884,-0.000416278839111328,0.0000768122353800254
885,-0.000260353088378906,0.0000593992509101786
886,-0.000244617462158203,0.000058480145796173
887,-0.000304698944091797,0.0000555909103162261
888,-0.000264644622802734,0.0000563949402452224
889,-0.000223159790039062,0.0000702651548676465
890,-0.000322341918945312,0.0000644594953831445
891,-0.000359058380126953,0.0000732841470849538
892,-0.000290870666503906,0.0000718253529203407
893,-0.000328540802001953,0.000059485316037534
894,-0.000177860260009766,0.0000542285665617767
895,-0.000370025634765625,0.0000609074314159943
896,-0.000331401824951172,0.0000698708822431894
897,-0.000332832336425781,0.0000725685999378567
898,-0.000216960906982422,0.0000577425975922417
899,-0.000360488891601562,0.0000584733413144623
900,-0.000233650207519531,0.0000668933025999076
901,-0.000302791595458984,0.000080117157074889
902,-0.000340461730957031,0.0000732996585989565
903,-0.000257015228271484,0.0000710135251037114
904,-0.000339508056640625,0.0000778004795227785
905,-0.000272750854492187,0.0000699261817233481
906,-0.000192165374755859,0.0000703282273480331
907,-0.00030517578125,0.0000910871309072996
908,-0.000216484069824219,0.0000828339025028425
909,-0.000313758850097656,0.0000801568794344868
910,-0.000330924987792969,0.0000927469724000108
911,-0.000296592712402344,0.000070954266409174
912,-0.000208854675292969,0.000067025734456307
913,-0.000296115875244141,0.0000652779446021519
914,-0.000198841094970703,0.0000591287689746105
915,-0.000250816345214844,0.0000921172381671391
916,-0.000299930572509766,0.0000964979870468919
917,-0.000279903411865234,0.0000853991255215279
918,-0.000235080718994141,0.0000709109923243715
919,-0.000233650207519531,0.0000807940025515493
920,-0.000230312347412109,0.0000879709634901531
921,-0.000277996063232422,0.0000776220009119206
922,-0.000111103057861328,0.0000912442573537063
923,-0.000347614288330078,0.000098759410598752
924,-0.000290393829345703,0.000100378469073758
925,-0.000172138214111328,0.00010126476565168
926,-0.000236988067626953,0.000124650742015797
927,-0.000298976898193359,0.0000899492349437835
928,-0.000196456909179687,0.000085647705848724
929,-0.000262260437011719,0.0000752028285990594
930,-0.000321865081787109,0.000090143665406895
931,-0.000185012817382812,0.0000917611134904855
932,-0.000375747680664062,0.000113851299903285
933,-0.000214576721191406,0.0000933675892186016
934,-0.000357151031494141,0.0000744477045489263
935,-0.000279903411865234,0.0000864352024797404
936,-0.000401020050048828,0.000100965693999605
937,-0.000504970550537109,0.00008866350689418
938,-0.00025177001953125,0.0000770294971706721
939,-0.00028228759765625,0.0000942281381863094
940,-0.000343799591064453,0.0000719376455903859
941,-0.000412940979003906,0.0000729389419858881
942,-0.000193595886230469,0.0000885043677962808
943,-0.00042724609375,0.00011571925181902
944,-0.000322818756103516,0.0000831954449123714
945,-0.000239849090576172,0.0000913040439216723
946,-0.000314712524414062,0.0000994545606250989
947,-0.000322341918945312,0.0000832651074076953
948,-0.000398635864257812,0.000118267151054576
949,-0.000177383422851562,0.000110671428782573
950,-0.000355720520019531,0.000122731622863723
951,-0.000178337097167969,0.000111310584951534
952,-0.000365734100341797,0.0000777186058042053
953,-0.000244140625,0.0000670138602356205
954,-0.000258922576904297,0.0000663831997102074
955,-0.000379085540771484,0.0000877898519353108
956,-0.000202178955078125,0.000131164026237138
957,-0.000376224517822266,0.000122040506538745
958,-0.000312328338623047,0.000111820092827605
959,-0.000306129455566406,0.000142500134057776
960,-0.00038909912109375,0.000138328807667097
961,-0.000320911407470703,0.00013088984566152
962,-0.000386238098144531,0.0000971531575143055
963,-0.000269412994384766,0.000131427255073183
964,-0.000354290008544922,0.000101750837527915
965,-0.000308513641357422,0.000116332631545844
966,-0.000257968902587891,0.000122167131652068
967,-0.000295639038085937,0.000119738358426815
968,-0.000332832336425781,0.000110102928571094
969,-0.000272750854492187,0.000125174976421584
970,-0.000253677368164062,0.000109198832571346
971,-0.000371456146240234,0.00014015119362385
972,-0.000424861907958984,0.000141262957818389
973,-0.000226974487304687,0.000150731838524545
974,-0.000346660614013672,0.000145999408647611
975,-0.000393867492675781,0.000169705801981964
976,-0.000205516815185547,0.000155241072553558
977,-0.000336647033691406,0.000150227166417374
978,-0.000407218933105469,0.000132564160419234
979,-0.000442981719970703,0.000127375335072875
980,-0.000418186187744141,0.000172923008315523
981,-0.000299930572509766,0.000177311626383852
982,-0.00048828125,0.000192854547092627
983,-0.000188827514648437,0.000192873410017857
984,-0.000385761260986328,0.000190405561373801
985,-0.0000786781311035156,0.000164596561860848
986,-0.000477313995361328,0.000167230537237718
987,-0.0000123977661132812,0.000185557674106245
988,-0.000192642211914062,0.000171271517235886
989,-0.000411510467529297,0.000180241922835197
990,-0.000095367431640625,0.000218759667712967
991,-0.000634193420410156,0.000194423297973999
992,-0.000191688537597656,0.000220507155770928
993,-0.000278472900390625,0.000184150534754329
994,-0.000653743743896484,0.000157604599552553
995,-0.000579833984375,0.000140940674687695
996,-0.0000104904174804687,0.000179943964534851
997,-0.000550746917724609,0.00020899180260944
998,-0.0000209808349609375,0.00021479489572971
999,-0.00000286102294921875,0.000210656273319606
1000,-0.000186443328857422,0.000304071095933559
1001,-0.000293254852294922,0.000275517813922758
1002,-0.000164031982421875,0.000202776368118068
1003,-0.000296115875244141,0.000178446710528588
1004,-0.000341892242431641,0.000242687160553275
1005,-0.000104904174804687,0.000284265343056661
1006,-0.000161170959472656,0.000253390386491598
1007,-0.000664234161376953,0.000255449458529088
1008,-0.0000672340393066406,0.000266353570873558
1009,-0.000482559204101563,0.000238430022918714
1010,-0.000602245330810547,0.000245626221191486
1011,-0.000157356262207031,0.000324243657680676
1012,-0.0000829696655273438,0.00038179383814115
1013,-0.000609397888183594,0.000327175623205438
1014,-0.000539779663085938,0.000219875192705866
1015,-0.0000162124633789062,0.000196891600045226
1016,-0.000351905822753906,0.000233729991136552
1017,0.0000119209289550781,0.000282744733436081
1018,-0.000118732452392578,0.000282654652504679
1019,-0.000212669372558594,0.000308224234232795
1020,0.0000720024108886719,0.00033922397858512
1021,0.0000681877136230469,0.000342463371447258
1022,0.000496387481689453,0.000267375992823139
1023,-0.000298023223876953,0.00033115988757665
1024,-0.000223159790039062,0.000375287505171367
1025,0.000410079956054688,0.000444670017117242
1026,-0.000272750854492187,0.000285127887801384
1027,-0.000159263610839844,0.000321013064671331
1028,0.000321388244628906,0.000311920030162958
1029,-0.000165939331054687,0.000386764027011299
1030,-0.000667095184326172,0.000433249529175398
1031,0.00114536285400391,0.000586546144671542
1032,-0.000517845153808594,0.000534193839002542
1033,-0.000557899475097656,0.00039411564692053
1034,-0.000176906585693359,0.000390359296435788
1035,0.000431537628173828,0.000624248138083275
1036,-0.000451087951660156,0.0004426035277811
1037,-0.000261306762695312,0.00039247840532936
1038,0.000385284423828125,0.00056169393273047
1039,0.000362396240234375,0.000474090293783516
1040,-0.000550746917724609,0.000610363483312542
1041,-0.00110101699829102,0.000623128200323587
1042,0.0000395774841308594,0.000436687042526033
1043,0.000575065612792969,0.000785030961122768
1044,-0.000500679016113281,0.000640823725953177
1045,-0.000554561614990234,0.000813970945640901
1046,0.000906467437744141,0.000657047691632776
1047,0.000157833099365234,0.000508443481649571
1048,0.000322341918945312,0.000733355086578106
1049,0.00109148025512695,0.000805380077596425
1050,-0.000384807586669922,0.000618792812986719
1051,-0.000448226928710938,0.000591474931003139
1052,0.00123739242553711,0.000868897270037217
1053,-0.000379085540771484,0.00103768180057194
1054,0.0000600814819335938,0.000832111308898126
1055,0.000298976898193359,0.00113231627513736
1056,0.00169515609741211,0.000887374349887006
1057,0.000417232513427734,0.0011688670655643
1058,0.0000758171081542969,0.00101700143892298
1059,0.000811100006103516,0.000909563348295825
1060,0.00168180465698242,0.000711663444057709
1061,-0.0016779899597168,0.000907449050328901
1062,0.000585079193115234,0.000889585439375581
1063,0.00197362899780273,0.0010331563704644
1064,-0.00136899948120117,0.000785957251664601
1065,0.000161647796630859,0.000950112366658023
1066,0.00133895874023437,0.00149940411334695
1067,0.000897884368896484,0.00124707348792524
1068,0.00138187408447266,0.00128087514243465
1069,-0.00203180313110352,0.00117903153390205
1070,0.0000529289245605469,0.00176899979254658
1071,0.0000972747802734375,0.00160989263922569
1072,0.000484466552734375,0.00129380675239755
1073,-0.0000810623168945313,0.00129970940112386
1074,0.000512599945068359,0.00134153742690374
1075,0.000348567962646484,0.00114550220426339
1076,-0.0000362396240234375,0.00123254279527349
1077,0.000435352325439453,0.00123845543523773
1078,0.00306177139282227,0.00177445349599619
1079,0.0000133514404296875,0.00185031300044299
1080,0.000844478607177734,0.00140778351985727
1081,0.00195693969726562,0.00185775365182828
1082,-0.00215339660644531,0.00211822551534385
1083,-0.000653266906738281,0.00192012323621663
1084,0.00242900848388672,0.00232775315252989
1085,0.000087738037109375,0.00186641251469962
1086,-0.00259923934936523,0.0026026413344566
1087,0.00173091888427734,0.00220983934257589
1088,0.000111103057861328,0.00210050962798099
1089,0.00000286102294921875,0.00191633017171641
1090,0.00328350067138672,0.00230357183511071
1091,-0.00396871566772461,0.00218328691827842
1092,0.00369596481323242,0.00224444287209435
1093,-0.0000123977661132812,0.00190591376692804
1094,-0.00257968902587891,0.00223675319846298
1095,0.00209808349609375,0.00286540395368787
1096,-0.000995635986328125,0.00233808269365076
1097,-0.00404882431030273,0.00245908061620157
1098,-0.00123977661132812,0.00343529532998839
1099,0.00123739242553711,0.00364643557433628
1100,0.000913619995117188,0.00185367598005795
