Wavelength (nm),Absorbance (AU),Std.Dev.
190,0.828139305114746,0.645122834566943
191,1.5790548324585,1.06754317828367
192,1.00095272064209,0.54390936960467
193,1.01407480239868,0.513489897661093
194,1.10245180130005,0.345498924507642
195,1.33164072036743,0.45379799160805
196,1.37479400634766,0.283828780879369
197,1.03200960159302,0.141183380350546
198,0.985053539276123,0.206010714354159
199,1.70189809799194,0.38949054014106
200,1.51641178131104,0.367135551511419
201,2.02157354354858,0.579890673626827
202,2.27106094360352,0.356690037992547
203,2.92222881317139,0.443131308356014
204,3.34568738937378,0.451581760510521
205,3.23094654083252,0.56298806950614
206,3.98097038269043,1.13778542092193
207,3.71643924713135,0.787746427217382
208,3.99999952316284,1.16377408339742
209,3.48764038085937,0.937206985459322
210,3.99999952316284,0.468008854187243
211,3.99255037307739,0.211767752631716
212,3.99999952316284,0.199142142133295
213,3.96945858001709,0.329152270296007
214,3.71389293670654,0.574909236212824
215,3.99999952316284,0.471864652204422
216,3.96612215042114,0.367665081704379
217,3.99999952316284,0.432254406652278
218,3.88278150558472,0.243416896041175
219,3.50329113006592,0.271954684802335
220,3.89502954483032,0.305762326956637
221,3.72523069381714,0.150450855430942
222,3.49989891052246,0.158699669256028
223,3.67798519134522,0.472962839614541
224,3.90699481964111,1.10408067668309
225,3.99999952316284,1.29324605221222
226,3.73744487762451,0.797640563631264
227,3.74784326553345,1.15265488384425
228,3.80076932907104,0.533170929659875
229,3.3055272102356,0.0396598912123796
230,3.25963258743286,0.0429985636537762
231,3.12784624099731,0.0380695014114136
232,3.0215950012207,0.0255684130109102
233,2.89453411102295,0.0229829580776608
234,2.74364233016968,0.0170129408107269
235,2.66557884216309,0.0116990241287678
236,2.58502340316772,0.00840780046763797
237,2.51121234893799,0.00650160511078975
238,2.48764038085937,0.00474261230753036
239,2.45273637771606,0.00730435538939416
240,2.43330001831055,0.00707705202875259
241,2.46177577972412,0.00879880577025289
242,2.49520492553711,0.0104111020801857
243,2.50528192520142,0.00464388905313166
244,2.57683706283569,0.00592827029374418
245,2.67576789855957,0.0132686555274191
246,2.76466035842896,0.0168049637591338
247,2.8442325592041,0.0161049561235078
248,2.97560691833496,0.0315272430807772
249,3.15415382385254,0.0524328583582863
250,3.14025259017944,0.0438257923287439
251,3.38222408294678,0.114372521879105
252,3.55848121643066,0.19799428388263
253,3.67099142074585,0.161112096206167
254,3.53265810012817,0.109501356978696
255,3.55198907852173,0.110165599669706
256,3.44933557510376,0.141176625326483
257,3.56146812438965,0.207822045128534
258,3.59636402130127,0.171758438813675
259,3.51618671417236,0.108681798134967
260,3.60837459564209,0.0683698373690126
261,3.54504919052124,0.048940300833304
262,3.24498748779297,0.064554770111249
263,3.43673133850098,0.114840594397548
264,3.34230470657349,0.102599498558678
265,3.0974588394165,0.0871674348446006
266,3.15321636199951,0.139638193461682
267,3.3236198425293,0.130168857948397
268,3.58653450012207,0.16981239738363
269,3.14915466308594,0.120509553522675
270,3.24628973007202,0.103619217769967
271,3.22562408447266,0.0854310806642233
272,3.07356023788452,0.0579627070400414
273,2.94398498535156,0.0644679197035118
274,3.03262758255005,0.0575094994700604
275,3.01995372772217,0.0570923778116397
276,2.93331718444824,0.0499862652033974
277,2.77512216567993,0.0371101780854714
278,2.5290699005127,0.0183377889796333
279,2.26301288604736,0.00730665007149362
280,1.96392583847046,0.00272462332116937
281,1.70043277740479,0.0021327944779246
282,1.4874382019043,0.00133095219470105
283,1.32116842269897,0.000832862950974403
284,1.17893743515015,0.000438217239860715
285,1.06637477874756,0.00047320700706362
286,0.973427295684814,0.000499375781619937
287,0.89841890335083,0.000348862355396002
288,0.837228298187256,0.000253634341613676
289,0.787155151367188,0.000181468961979161
290,0.746292591094971,0.000194193945102088
291,0.71156644821167,0.000201953906637889
292,0.68323278427124,0.000219937230155549
293,0.660117149353027,0.00027262411307308
294,0.641161918640137,0.000281047675421049
295,0.624486446380615,0.000275068506430477
296,0.612122535705566,0.00025270749885923
297,0.602184295654297,0.000260225551234319
298,0.593379497528076,0.000367292159083984
299,0.586547374725342,0.000233153379398558
300,0.582506656646729,0.000249512988290711
301,0.578927040100098,0.000318087199652603
302,0.575611591339111,0.000206602045835967
303,0.574361801147461,0.000222122192906917
304,0.574682235717773,0.000200003489902994
305,0.574680328369141,0.000245529930583456
306,0.575867176055908,0.000197597083852753
307,0.578471660614014,0.000236933853579923
308,0.580790996551514,0.000363948909005384
309,0.583289623260498,0.00033667269816924
310,0.58604097366333,0.000210958277266271
311,0.589460849761963,0.000243708108204424
312,0.593762874603272,0.00034874762720152
313,0.597098827362061,0.000291425145194364
314,0.601100444793701,0.000269982487170723
315,0.605365753173828,0.000326802912838597
316,0.609554767608643,0.000300484601956921
317,0.612459659576416,0.000438316849781654
318,0.616291046142578,0.000299405136538348
319,0.619518280029297,0.000323873189604937
320,0.622668266296387,0.00028352851302877
321,0.624945640563965,0.000285535887491804
322,0.626811027526856,0.00036613145601507
323,0.629344940185547,0.000326552346176646
324,0.630741596221924,0.000421062060965848
325,0.631914615631104,0.000396379904536894
326,0.632382392883301,0.000342479305534574
327,0.63241720199585,0.000338004565735299
328,0.631197929382324,0.00029014904372565
329,0.629758834838867,0.000293756459170203
330,0.628358364105225,0.000228253136881753
331,0.625102996826172,0.000236064735543094
332,0.622624397277832,0.000239404546983399
333,0.619552135467529,0.000245685458192514
334,0.615878105163574,0.000329921696631464
335,0.610815048217773,0.000490140355923799
336,0.606143951416016,0.00033171967831002
337,0.600772380828857,0.000204540353675148
338,0.595089912414551,0.000296952804844635
339,0.588103294372559,0.000319690066513846
340,0.581156253814697,0.000269341670359816
341,0.573830604553223,0.00036207486006675
342,0.566490650177002,0.000317600753122898
343,0.557293891906738,0.000309866381938363
344,0.548850059509277,0.000344179990581266
345,0.5404953956604,0.000262459765892377
346,0.530634880065918,0.000184160412220196
347,0.52039098739624,0.00019338201350565
348,0.51107120513916,0.000315929717740146
349,0.500485897064209,0.000215213677963293
350,0.489512443542481,0.00029283858427599
351,0.478934764862061,0.000278786260842796
352,0.468257427215576,0.000305312841154955
353,0.457306385040283,0.000275669619837476
354,0.445541381835938,0.000304280398054959
355,0.434417724609375,0.00033449914228726
356,0.422905921936035,0.000239950977473393
357,0.411031246185303,0.000250814532139248
358,0.39939546585083,0.000196900838360776
359,0.387109756469727,0.000270843505859375
360,0.375964164733887,0.000322905730190803
361,0.36430835723877,0.000381955790795207
362,0.352465152740479,0.000389351482457062
363,0.341330051422119,0.000282686827561131
364,0.330788612365723,0.00025080002706263
365,0.320930004119873,0.00025080002706263
366,0.311703681945801,0.000217395912295812
367,0.303526878356934,0.000288325256820926
368,0.295188426971436,0.00022544667199557
369,0.285828590393066,0.000254850614366551
370,0.276225090026855,0.000265943501497348
371,0.267035484313965,0.0002756828164013
372,0.257891654968262,0.000228193360234927
373,0.249419212341309,0.000245441013415916
374,0.240419387817383,0.000274001767589101
375,0.232439517974854,0.000223029334907687
376,0.223703861236572,0.000234320710023744
377,0.215289115905762,0.000192089041985553
378,0.207741737365723,0.000200593780052717
379,0.199485778808594,0.000197113200115415
380,0.192049503326416,0.000219722092106166
381,0.184902667999268,0.000181203139386177
382,0.177999973297119,0.000186715695399074
383,0.170912742614746,0.000217136374981044
384,0.163969039916992,0.000227518791413167
385,0.157433986663818,0.000203170683255892
386,0.151555061340332,0.000245863083562043
387,0.144947528839111,0.000188272798106625
388,0.138671398162842,0.00018753708997838
389,0.133485317230225,0.000189212445258206
390,0.127887725830078,0.000173149020641882
391,0.12227201461792,0.000183368533627079
392,0.117156982421875,0.000256650042433666
393,0.112135410308838,0.000181854464739987
394,0.107426166534424,0.000251798917094563
395,0.102824211120605,0.000184732401597348
396,0.0980958938598633,0.000183030947779615
397,0.0940098762512207,0.000173505834566691
398,0.0896878242492676,0.000196030533691335
399,0.0853829383850098,0.000177654960924046
400,0.0822381973266602,0.000211251239112565
401,0.0785679817199707,0.000187914984211041
402,0.0745429992675781,0.000224763859872265
403,0.0711455345153809,0.000181448913483052
404,0.0680141448974609,0.000189322967959176
405,0.0646181106567383,0.000148663113290023
406,0.0612802505493164,0.000124570456375698
407,0.0587353706359863,0.000148237314767692
408,0.0560984611511231,0.000200616448834226
409,0.0532641410827637,0.00016405970317012
410,0.0506253242492676,0.000217341518860715
411,0.0481328964233398,0.000183873750284555
412,0.0458369255065918,0.000179549294621403
413,0.0433945655822754,0.000157910152423802
414,0.0409917831420898,0.000154718778920542
415,0.0392346382141113,0.000173106994179942
416,0.0371336936950684,0.00015476286043877
417,0.0352444648742676,0.000198061418446072
418,0.0333504676818848,0.000261557243194219
419,0.0316081047058105,0.000158940633056638
420,0.0300440788269043,0.0000841843815080333
421,0.0283451080322266,0.000121201087766098
422,0.0268087387084961,0.000142908024716288
423,0.0253996849060059,0.000120621894743916
424,0.0240316390991211,0.000129429451485956
425,0.0225896835327148,0.000213269383727867
426,0.021573543548584,0.000252556295555543
427,0.0203962326049805,0.000244550063606168
428,0.019197940826416,0.00017845690369745
429,0.0181746482849121,0.000154941996075945
430,0.0167064666748047,0.000131959029854514
431,0.0159497261047363,0.000163033685658252
432,0.0152254104614258,0.000145378257933569
433,0.014216423034668,0.000187367274326215
434,0.0131402015686035,0.000155580500040926
435,0.0124950408935547,0.000103571401748073
436,0.0118346214294434,0.000120817776904331
437,0.0109829902648926,0.00015855391212993
438,0.0101437568664551,0.000111435119736359
439,0.00943470001220703,0.000137623497864359
440,0.00890016555786133,0.000187357565925766
441,0.00822162628173828,0.000192297258390971
442,0.00760078430175781,0.000114796008124581
443,0.00686883926391602,0.000114583879820828
444,0.00666093826293945,0.000137775411161436
445,0.00620508193969727,0.0000992165102421935
446,0.00561380386352539,0.00014962052863641
447,0.00518226623535156,0.000124927695417883
448,0.00476884841918945,0.000107889609975386
449,0.0042109489440918,0.000103153445232781
450,0.00402116775512695,0.00013224131020861
451,0.00386190414428711,0.00015634733480156
452,0.00332164764404297,0.000120045589463304
453,0.00308942794799805,0.000136625287773485
454,0.00273561477661133,0.000119386541196378
455,0.0024571418762207,0.000172126986277443
456,0.00203895568847656,0.00014845802473448
457,0.00212192535400391,0.000112906742435517
458,0.00177764892578125,0.000115303918192387
459,0.00119256973266602,0.000173924678470215
460,0.00106620788574219,0.000158327170663362
461,0.00105142593383789,0.000118134421111523
462,0.000988483428955078,0.000119197844909615
463,0.000498771667480469,0.0000763892532138855
464,0.000477313995361328,0.0000817994652851926
465,0.000380039215087891,0.0000901310527855733
466,0.000368118286132812,0.0000856291205472376
467,0.0000247955322265625,0.000112565892636715
468,-0.000110626220703125,0.000106016675690713
469,-0.000150680541992187,0.000133507592163689
470,-0.000365257263183594,0.0000962455377540033
471,-0.000406742095947266,0.0000990628478902656
472,-0.000507354736328125,0.000103036554939475
473,-0.000732898712158203,0.000123068335767672
474,-0.000709056854248047,0.000126375341594524
475,-0.000888824462890625,0.000104262818986161
476,-0.000719070434570313,0.0000877069335206483
477,-0.000977516174316406,0.000124581407464176
478,-0.00102996826171875,0.000100747014207796
479,-0.00111007690429687,0.0000906241532760971
480,-0.00121212005615234,0.0000863562493811949
481,-0.000990390777587891,0.000141793123519416
482,-0.00130796432495117,0.000143584211875083
483,-0.00128793716430664,0.000093644796515848
484,-0.00119256973266602,0.000084693313426785
485,-0.0013737678527832,0.0000856649600182614
486,-0.00143527984619141,0.0000866637597109705
487,-0.0012822151184082,0.000075752602733083
488,-0.00129222869873047,0.00007672486205413
489,-0.0014348030090332,0.000108672851727198
490,-0.00152158737182617,0.0000898834881157208
491,-0.00153207778930664,0.0000957053872128166
492,-0.00147533416748047,0.0000963069414356012
493,-0.00156688690185547,0.0000740772318809698
494,-0.00151634216308594,0.0000931261871266925
495,-0.0015716552734375,0.0000981659366207803
496,-0.00154685974121094,0.00010432168327541
497,-0.00169706344604492,0.0000870799177539333
498,-0.00147056579589844,0.0000826676671324514
499,-0.00161027908325195,0.000079765892209189
500,-0.00170373916625977,0.000107242786476618
501,-0.00150585174560547,0.0000965992527931259
502,-0.00162744522094727,0.0000976643521702959
503,-0.0016016960144043,0.0000943631701338391
504,-0.00163936614990234,0.0000889119111694844
505,-0.00151157379150391,0.0000857843167818
506,-0.00153446197509766,0.0000853991255215279
507,-0.00154638290405273,0.0000885017986917128
508,-0.00144720077514648,0.0000830641570192877
509,-0.00153541564941406,0.0000668201830637926
510,-0.00142765045166016,0.0000915502508144485
511,-0.00153827667236328,0.000109198832571346
512,-0.00141668319702148,0.000105198533883192
513,-0.00154590606689453,0.0000879683788075861
514,-0.00142669677734375,0.0000761119340375914
515,-0.00141382217407227,0.0000921172381671391
516,-0.00135135650634766,0.000103722769087949
517,-0.00144624710083008,0.0000988744585287687
518,-0.00143337249755859,0.0000835948714998253
519,-0.00134706497192383,0.000125439897302945
520,-0.00136804580688477,0.000121002067984359
521,-0.00134849548339844,0.00010993552812676
522,-0.00137138366699219,0.000119819984204792
523,-0.0013737678527832,0.000120887389202048
524,-0.001434326171875,0.0000813087755853415
525,-0.00140905380249023,0.0000694350877733894
526,-0.00132513046264648,0.0000813912282376828
527,-0.00134944915771484,0.000070806705498302
528,-0.00125455856323242,0.0000858770351316418
529,-0.0012974739074707,0.000107602612890767
530,-0.00124359130859375,0.0000880355558916851
531,-0.00115013122558594,0.0000886942750293667
532,-0.00137615203857422,0.0000987478984336297
533,-0.00133752822875977,0.000109850697326522
534,-0.00127172470092773,0.0000948342678491356
535,-0.00124406814575195,0.0000855454367230679
536,-0.00123071670532227,0.0000802320143426135
537,-0.00115728378295898,0.0000824942064997048
538,-0.00126361846923828,0.0000851631698522796
539,-0.00123214721679687,0.0000760327278094386
540,-0.00120639801025391,0.0000636412388367032
541,-0.00103998184204102,0.0000837484075454416
542,-0.00118923187255859,0.0000822803207718725
543,-0.00115489959716797,0.000073519568909485
544,-0.00111293792724609,0.000094798297179951
545,-0.000972270965576172,0.0000850242238249907
546,-0.000980377197265625,0.0000766685349902973
547,-0.00111532211303711,0.0000568936872035013
548,-0.00115871429443359,0.0000639886329544688
549,-0.00101375579833984,0.0000712420885659862
550,-0.00103902816772461,0.0000939889463624338
551,-0.00127029418945312,0.0000764219878532014
552,-0.00106620788574219,0.0000712085692600232
553,-0.00111961364746094,0.0000780572378505177
554,-0.001007080078125,0.000077620536276779
555,-0.00103378295898437,0.0000976899580596866
556,-0.00112009048461914,0.0000851805221695018
557,-0.000991344451904297,0.0000791147428587194
558,-0.000936985015869141,0.0000660673326802568
559,-0.00100135803222656,0.0000597380099775807
560,-0.0010828971862793,0.0000598653812510722
561,-0.000955104827880859,0.00005806850787495
562,-0.000903606414794922,0.0000592593682921359
563,-0.000952243804931641,0.0000775633939339459
564,-0.000967979431152344,0.00008374433500465
565,-0.000944614410400391,0.0000613287480646878
566,-0.000909805297851563,0.0000749696597516706
567,-0.000985622406005859,0.0000710279319052331
568,-0.000885486602783203,0.0000708773164365213
569,-0.000950336456298828,0.000085806843306363
570,-0.00101184844970703,0.0000883578096153295
571,-0.000860214233398438,0.0000833851725131875
572,-0.000826835632324219,0.0000699082955018704
573,-0.000867843627929688,0.0000758201070708241
574,-0.000867366790771484,0.0000589390788307868
575,-0.0008392333984375,0.0000711606571484287
576,-0.000824451446533203,0.000078479921766056
577,-0.000723838806152344,0.0000847080778299066
578,-0.000921249389648438,0.0000546576867572039
579,-0.000795364379882813,0.0000614898109360039
580,-0.000896453857421875,0.0000733275710553783
581,-0.000927925109863281,0.0000596103665466572
582,-0.000814914703369141,0.0000589496867560519
583,-0.000715255737304688,0.0000725388282032959
584,-0.000823974609375,0.0000634498092778683
585,-0.000818729400634766,0.0000696296551871115
586,-0.000791072845458984,0.0000668133771783539
587,-0.000833034515380859,0.0000601297139529248
588,-0.000726699829101563,0.0000743514369131579
589,-0.000797271728515625,0.0000639992921010411
590,-0.000849723815917969,0.0000832651074076953
591,-0.000888347625732422,0.0000761612095113536
592,-0.00083160400390625,0.000064427741066187
593,-0.000784873962402344,0.0000611058957722474
594,-0.000807762145996094,0.0000619649841217591
595,-0.000687599182128906,0.0000701112793308412
596,-0.000735759735107422,0.0000820769593493331
597,-0.000741481781005859,0.0000820326233788601
598,-0.000805854797363281,0.0000922701463274898
599,-0.000765323638916016,0.0000864509844467895
600,-0.000775814056396484,0.0000730790865351411
601,-0.000664710998535156,0.0000883372205879929
602,-0.000735759735107422,0.0000654223361440372
603,-0.000734806060791016,0.0000600521455017836
604,-0.000729560852050781,0.0000671985207746613
605,-0.000705718994140625,0.0000640614351078314
606,-0.000727176666259766,0.000057506838049784
607,-0.000754833221435547,0.0000537896832117008
608,-0.000719547271728516,0.0000694596430974846
609,-0.000798225402832031,0.000054987408886436
610,-0.000768184661865234,0.0000635894129874025
611,-0.000716686248779297,0.0000591893030135456
612,-0.000771999359130859,0.000063970863763336
613,-0.000769615173339844,0.00007224358342527
614,-0.000661849975585938,0.0000780514118139481
615,-0.0007476806640625,0.0000817535882371765
616,-0.000807285308837891,0.0000604474562274769
617,-0.000669956207275391,0.0000692531077723166
618,-0.000760078430175781,0.0000676806476437641
619,-0.000739574432373047,0.0000521030517144099
620,-0.000700473785400391,0.0000746383441806866
621,-0.000668048858642578,0.0000724886586956407
622,-0.000757217407226563,0.0000760312325591841
623,-0.00063323974609375,0.0000639210837495336
624,-0.000776767730712891,0.000069106849725694
625,-0.000794887542724609,0.0000753975903688685
626,-0.000712394714355469,0.0000658708725347038
627,-0.000696659088134766,0.0000956079311572466
628,-0.000772476196289063,0.0000934965685257513
629,-0.000682353973388672,0.0000896225555243077
630,-0.000696182250976563,0.0000582912704083867
631,-0.000738620758056641,0.0000804697141970059
632,-0.000700473785400391,0.0000849198651103353
633,-0.000758171081542969,0.0000803566114822691
634,-0.000745296478271484,0.0000586364309385798
635,-0.000706672668457031,0.0000580391333644075
636,-0.000746250152587891,0.0000708243648326841
637,-0.000651836395263672,0.0000664619319071878
638,-0.00074005126953125,0.0000523436031343941
639,-0.000688076019287109,0.000049835756810411
640,-0.000801563262939453,0.0000507142714605674
641,-0.0005950927734375,0.0000665098102218619
642,-0.000699996948242188,0.0000979804639944318
643,-0.000688552856445313,0.0000834900878431875
644,-0.000642776489257813,0.0000653562687649514
645,-0.000654697418212891,0.0000914881398893663
646,-0.000632762908935547,0.000106592037985481
647,-0.000642299652099609,0.0000812584243932373
648,-0.000674724578857422,0.000106624029994001
649,-0.000630378723144531,0.0000743896532653391
650,-0.0006866455078125,0.0000781489406352077
651,-0.000804901123046875,0.0000695070921260399
652,-0.000687599182128906,0.0000601410570418679
653,-0.000739574432373047,0.0000727875951759828
654,-0.000690460205078125,0.000089992197283637
655,-0.000638484954833984,0.000100142614950376
656,-0.000722885131835938,0.000051874535649687
657,-0.000352382659912109,0.0000431063164645386
658,-0.000598430633544922,0.0000516317989008148
659,-0.00052642822265625,0.0000655629417754748
660,-0.000731945037841797,0.000062890103230437
661,-0.000669956207275391,0.0000648340738957458
662,-0.000585556030273438,0.0000687489388386357
663,-0.000627994537353516,0.0000491581877474208
664,-0.000616550445556641,0.0000622030371848311
665,-0.000662803649902344,0.0000778267777833071
666,-0.000656604766845703,0.0000629370860454831
667,-0.000605583190917969,0.0000636537422026262
668,-0.000689029693603516,0.0000730401844666657
669,-0.000675201416015625,0.0000833374400639564
670,-0.000579357147216797,0.0000683442566323632
671,-0.000618934631347656,0.0000568926880782771
672,-0.000584125518798828,0.0000588541465973486
673,-0.0006561279296875,0.0000512461310868375
674,-0.000609874725341797,0.0000450945281195684
675,-0.00058746337890625,0.0000625275167366047
676,-0.000613689422607422,0.0000597284937672491
677,-0.000589847564697266,0.0000567506337040888
678,-0.000516891479492188,0.0000675848338459087
679,-0.0005950927734375,0.0000741815185411913
680,-0.000612258911132813,0.0000825685913921866
681,-0.000652790069580078,0.0000887250324947564
682,-0.000650882720947266,0.0000772005102361247
683,-0.000625133514404297,0.0000683509100841539
684,-0.000567913055419922,0.0000742963708315241
685,-0.000626087188720703,0.0000558876746659197
686,-0.000584602355957031,0.0000709270228416611
687,-0.000570774078369141,0.0000754789693352103
688,-0.000540733337402344,0.0000807588168958267
689,-0.000571727752685547,0.0000788715182207835
690,-0.000591754913330078,0.0000626201757159303
691,-0.000609874725341797,0.0000665593621689386
692,-0.000530242919921875,0.0000652117309371157
693,-0.000566959381103516,0.0000569086719769112
694,-0.000649929046630859,0.0000785928321610237
695,-0.000660419464111328,0.0000597798633064787
696,-0.000590324401855469,0.0000488787161729905
697,-0.000571727752685547,0.0000625384249185973
698,-0.000532150268554688,0.000051219502801804
699,-0.000576496124267578,0.0000683143080801697
700,-0.000636577606201172,0.0000796960240528425
701,-0.00067901611328125,0.000052037551707312
702,-0.000580310821533203,0.0000557083772526599
703,-0.000574588775634766,0.0000576095465492234
704,-0.0006256103515625,0.0000704848551707005
705,-0.000619411468505859,0.0000537082501438146
706,-0.00060272216796875,0.0000503746355300382
707,-0.000566482543945313,0.0000464408548415808
708,-0.000659465789794922,0.0000549294881928795
709,-0.000627994537353516,0.0000559435872610826
710,-0.000550270080566406,0.0000640472363078326
711,-0.000577926635742188,0.000055292553205741
712,-0.000570297241210938,0.0000634659330702453
713,-0.000598907470703125,0.0000706475728504128
714,-0.000591278076171875,0.0000715541782402027
715,-0.000552654266357422,0.0000614583720616075
716,-0.00061798095703125,0.000066675408527178
717,-0.000585556030273438,0.0000744232674222056
718,-0.000557422637939453,0.0000634659330702453
719,-0.000549793243408203,0.0000733647711445499
720,-0.000596523284912109,0.0000597560866021047
721,-0.000520706176757813,0.0000506593197223153
722,-0.000543117523193359,0.0000643359183331411
723,-0.000506877899169922,0.0000632218462291048
724,-0.000544071197509766,0.0000473883541127467
725,-0.00058746337890625,0.0000564352439418053
726,-0.000516414642333984,0.0000585063842410393
727,-0.000467777252197266,0.0000630002768131781
728,-0.000509738922119141,0.0000616891660333756
729,-0.000565052032470703,0.0000625493311982766
730,-0.000495433807373047,0.0000698887780396217
731,-0.000514984130859375,0.0000584363888740927
732,-0.000537872314453125,0.0000713887495435002
733,-0.000559329986572266,0.0000629768133582218
734,-0.000489711761474609,0.0000624820454799641
735,-0.000536441802978516,0.0000586519396321927
736,-0.000479698181152344,0.0000643871433156997
737,-0.000478744506835938,0.0000684722220147663
738,-0.000463485717773438,0.000063858804162577
739,-0.000509738922119141,0.0000536288133439613
740,-0.000558376312255859,0.0000593111441435753
741,-0.000453472137451172,0.0000502118810656629
742,-0.000546932220458984,0.0000442483301294147
743,-0.000509262084960938,0.0000577445664142956
744,-0.000538825988769531,0.0000524347450023318
745,-0.000504016876220703,0.0000685021015283285
746,-0.000514507293701172,0.0000708757124237022
747,-0.000493526458740234,0.0000743835399684339
748,-0.000551700592041016,0.0000665730251809205
749,-0.000550270080566406,0.0000610928709621724
750,-0.000529766082763672,0.000058779730223927
751,-0.000515460968017578,0.0000507389243106907
752,-0.000551223754882813,0.0000640614351078314
753,-0.000539302825927734,0.0000542683842690978
754,-0.000501632690429688,0.0000560278588129982
755,-0.000508308410644531,0.0000471188948710116
756,-0.000460147857666016,0.0000573960233523131
757,-0.000463008880615234,0.000053094056429559
758,-0.000466346740722656,0.0000506873637672231
759,-0.000479221343994141,0.000068897606796088
760,-0.000420093536376953,0.0000621243975179914
761,-0.000443935394287109,0.000053941643696193
762,-0.000470638275146484,0.0000685850318770035
763,-0.000483989715576172,0.0000709446522270099
764,-0.000504016876220703,0.0000570254180711471
765,-0.000489711761474609,0.000054771966130476
766,-0.000470161437988281,0.000061371369006379
767,-0.000402450561523438,0.000072640628342623
768,-0.000484943389892578,0.0000643023350115311
769,-0.000459194183349609,0.0000546888775417843
770,-0.000460147857666016,0.0000629443110582547
771,-0.000452041625976563,0.0000639975156998999
772,-0.000433921813964844,0.0000740849050179872
773,-0.000437259674072266,0.0000594776708469954
774,-0.000462055206298828,0.0000556001123319565
775,-0.00040435791015625,0.0000592142672758017
776,-0.000455856323242188,0.0000620969416464432
777,-0.000415325164794922,0.0000467968968525851
778,-0.000522613525390625,0.0000591441485681923
779,-0.000486850738525391,0.0000640596604299418
780,-0.000421524047851563,0.0000763192730824218
781,-0.000442028045654297,0.0000570134551148801
782,-0.000494956970214844,0.0000642970307783248
783,-0.00038909912109375,0.0000643359183331411
784,-0.000501155853271484,0.0000516328998272603
785,-0.000424861907958984,0.000064066758846544
786,-0.000443458557128906,0.000057625331608683
787,-0.000485420227050781,0.0000568747008228891
788,-0.000443458557128906,0.0000764383499158945
789,-0.000501632690429688,0.0000790040173952703
790,-0.000483036041259766,0.0000694776448194656
791,-0.00041961669921875,0.0000675865159603196
792,-0.00046539306640625,0.0000656513167552785
793,-0.000407695770263672,0.0000833919892041871
794,-0.000492572784423828,0.0000704461343171077
795,-0.000462532043457031,0.0000671816005878705
796,-0.000451564788818359,0.0000646039564302061
797,-0.000483512878417969,0.0000517055091442055
798,-0.000444889068603516,0.0000695790219645067
799,-0.000470638275146484,0.0000669170917193733
800,-0.000536441802978516,0.0000577041921356535
801,-0.000463008880615234,0.0000648463472652634
802,-0.000456333160400391,0.0000601609023012901
803,-0.000382423400878906,0.0000600521455017836
804,-0.000352382659912109,0.0000613083536620587
805,-0.000485420227050781,0.0000625002379524649
806,-0.000448226928710938,0.0000755587560558279
807,-0.000400543212890625,0.0000598853178661379
808,-0.000382900238037109,0.0000513137491172722
809,-0.000471115112304688,0.000051833975690419
810,-0.000396728515625,0.0000640933709070827
811,-0.000346183776855469,0.0000452844695102251
812,-0.000418663024902344,0.0000433305680204228
813,-0.000382423400878906,0.00006405611092666
814,-0.000502109527587891,0.0000601391666756181
815,-0.000312328338623047,0.0000604427541578321
816,-0.000386714935302734,0.0000533269402719536
817,-0.000387191772460937,0.0000522109470790265
818,-0.000459671020507813,0.0000580234608782339
819,-0.000417709350585938,0.0000647674064499435
820,-0.000390052795410156,0.0000689981885010787
821,-0.000393867492675781,0.0000649847003071273
822,-0.000369548797607422,0.0000599194794877789
823,-0.000374794006347656,0.0000654622919021217
824,-0.000443458557128906,0.0000705751212132111
825,-0.000347137451171875,0.0000701874493919893
826,-0.000391483306884766,0.0000683126438867425
827,-0.000443458557128906,0.0000592632050916408
828,-0.000417709350585938,0.0000698334489403641
829,-0.000436305999755859,0.0000708821282571926
830,-0.000442981719970703,0.0000493313333315542
831,-0.000470638275146484,0.0000490122727595624
832,-0.000425338745117188,0.0000576637895882835
833,-0.000459671020507813,0.0000633655405930703
834,-0.000400543212890625,0.0000651733659630605
835,-0.000451087951660156,0.0000660828178164545
836,-0.000461578369140625,0.0000556655050182819
837,-0.000377655029296875,0.0000721806095783779
838,-0.000412940979003906,0.0000761223890762157
839,-0.000447750091552734,0.0000723222236238358
840,-0.000386714935302734,0.0000642280358843906
841,-0.000406265258789063,0.0000998879954038518
842,-0.000295162200927734,0.0000661687803600375
843,-0.000419139862060547,0.0000593676624354163
844,-0.000313758850097656,0.000057077228574543
845,-0.000372886657714844,0.000057894000982042
846,-0.000336647033691406,0.000077892484589511
847,-0.000372886657714844,0.0000586112205591564
848,-0.000375270843505859,0.0000560329313650274
849,-0.000362396240234375,0.0000683625520666117
850,-0.000390529632568359,0.0000791176167800331
851,-0.000449657440185547,0.0000621792728908655
852,-0.000435352325439453,0.0000691249433232283
853,-0.000336170196533203,0.000069590458492996
854,-0.000378131866455078,0.0000657136275365914
855,-0.000497341156005859,0.0000682876761185007
856,-0.000397205352783203,0.0000835853511408799
857,-0.000371456146240234,0.000067025734456307
858,-0.000367164611816406,0.0000767485663451271
859,-0.000349521636962891,0.0000661498781851108
860,-0.000415802001953125,0.0000608280512632759
861,-0.000440120697021484,0.0000811786378018946
862,-0.000474929809570313,0.000060428645753635
863,-0.000362396240234375,0.0000607335940800298
864,-0.000445842742919922,0.0000755647742761525
865,-0.000472545623779297,0.0000615526405112776
866,-0.000438213348388672,0.0000642952626033474
867,-0.000325679779052734,0.0000631228666052739
868,-0.000391960144042969,0.000071173436865166
869,-0.000459194183349609,0.0000550483665467893
870,-0.000366687774658203,0.0000450087298350162
871,-0.000421047210693359,0.0000536383519715226
872,-0.000395774841308594,0.0000777039764194538
873,-0.000378131866455078,0.0000693285808681707
874,-0.000402450561523438,0.000069120009175442
875,-0.000307559967041016,0.0000889604864390766
876,-0.000400543212890625,0.0000818258676750626
877,-0.000411033630371094,0.0000896732814484077
878,-0.000350475311279297,0.0000686413672834003
879,-0.000423908233642578,0.0000753251797011492
880,-0.000340461730957031,0.0000579626899681959
881,-0.000412940979003906,0.0000627942217049987
882,-0.000414848327636719,0.0000677327000009456
883,-0.000357627868652344,0.0000678618185906274
884,-0.000461101531982422,0.0000658587900948317
885,-0.000323295593261719,0.0000677813579533927
886,-0.00035858154296875,0.0000668150787147064
887,-0.000332832336425781,0.0000715954756894053
888,-0.000334739685058594,0.0000626401430164703
889,-0.000376224517822266,0.0000906467312326678
890,-0.000412940979003906,0.000074081835858551
891,-0.000403881072998047,0.000064417152815372
892,-0.000262737274169922,0.0000796731966913852
893,-0.000382423400878906,0.0000752451453066038
894,-0.000272274017333984,0.0000717572592431416
895,-0.000478267669677734,0.0000553336598601481
896,-0.000273704528808594,0.0000648358273764936
897,-0.000383853912353516,0.0000675814694914827
898,-0.000334262847900391,0.0000662288877528182
899,-0.000380992889404297,0.00007134573899083
900,-0.000363349914550781,0.0000639744179964005
901,-0.000413894653320313,0.0000863773105971367
902,-0.000391006469726562,0.0000878157478834671
903,-0.000345230102539062,0.0000817688834464779
904,-0.000369548797607422,0.0000822512999236968
905,-0.000397205352783203,0.0000598976562548048
906,-0.000185489654541016,0.0000745407975997458
907,-0.000328540802001953,0.000087410897430437
908,-0.000354290008544922,0.0000834247015675926
909,-0.000475883483886719,0.0000756219234817042
910,-0.000375270843505859,0.0000764026463524275
911,-0.000357627868652344,0.0000821171181460963
912,-0.000290870666503906,0.0000832773947400735
913,-0.000422000885009766,0.0000649777021700935
914,-0.000393867492675781,0.0000582776165443951
915,-0.000280857086181641,0.0000729669924293082
916,-0.000292778015136719,0.0000816116234047491
917,-0.000371456146240234,0.0000727360342623457
918,-0.000374317169189453,0.0000588222653937893
919,-0.000313758850097656,0.0000649637036344283
920,-0.000380516052246094,0.0000682976643211018
921,-0.000403881072998047,0.0000734979168492571
922,-0.000285148620605469,0.000053986937852309
923,-0.0003509521484375,0.0000822665025971556
924,-0.000299930572509766,0.0000954151034414731
925,-0.000344753265380859,0.0000920480996094792
926,-0.000265598297119141,0.000114790065943383
927,-0.000419139862060547,0.0000764651166481992
928,-0.000387668609619141,0.0000790371074820388
929,-0.000343799591064453,0.0000758680736136448
930,-0.000413894653320313,0.000101296195512972
931,-0.000199317932128906,0.0000914881398893663
932,-0.000413417816162109,0.0000999835537202851
933,-0.00038909912109375,0.0000733167174739394
934,-0.000300407409667969,0.0000935111587469422
935,-0.000297069549560547,0.0000970618404333798
936,-0.000448226928710938,0.000106756161920128
937,-0.000481605529785156,0.0000931945258831257
938,-0.000395298004150391,0.0000837049568949366
939,-0.000393867492675781,0.000100224319572303
940,-0.000415802001953125,0.0000788744010043961
941,-0.000465869903564453,0.0000689322498502165
942,-0.000241279602050781,0.000110038891815821
943,-0.000394821166992187,0.000101111967356142
944,-0.000217914581298828,0.0000819813300235273
945,-0.000372886657714844,0.0000867817427690337
946,-0.000391483306884766,0.000118989742288359
947,-0.000367164611816406,0.0000982839927329485
948,-0.000396251678466797,0.000113895227869245
949,-0.000208377838134766,0.000113763393085073
950,-0.000442028045654297,0.000114082729553472
951,-0.000336170196533203,0.0001492187967007
952,-0.000566959381103516,0.000102011952131531
953,-0.000316619873046875,0.0000914980804706842
954,-0.000396728515625,0.00008749409639983
955,-0.000422477722167969,0.0000935233155258637
956,-0.000423908233642578,0.000145312554485365
957,-0.000432968139648438,0.000107963346085242
958,-0.000473499298095703,0.000127788799862636
959,-0.000363349914550781,0.000144187861444115
960,-0.000428676605224609,0.000125429021168421
961,-0.000360488891601562,0.000118217154370433
962,-0.0006561279296875,0.000114120591402417
963,-0.000142574310302734,0.000139761288309665
964,-0.000509738922119141,0.000131731389235169
965,-0.00043487548828125,0.0000970782370038264
966,-0.000443935394287109,0.000140585309916177
967,-0.000391006469726562,0.000120448348827748
968,-0.000308513641357422,0.000113859288066768
969,-0.000359058380126953,0.000119272215447611
970,-0.000417232513427734,0.000146385124478111
971,-0.000452995300292969,0.000186925031637586
972,-0.000530719757080078,0.000134275176290879
973,-0.000215053558349609,0.000145955796046705
974,-0.000236988067626953,0.00012959447967772
975,-0.000361442565917969,0.000156373509751067
976,-0.000324249267578125,0.000230181500878076
977,-0.000420570373535156,0.000177798247584793
978,-0.000494480133056641,0.000131959029854514
979,-0.000466823577880859,0.000110371065209803
980,-0.000571250915527344,0.000163807271469879
981,-0.000441551208496094,0.000160483865122964
982,-0.000303745269775391,0.000203197540514366
983,-0.000308036804199219,0.000205759515861429
984,-0.000383377075195312,0.00017650963289275
985,-0.00017547607421875,0.000155106266318603
986,-0.000571250915527344,0.000250611384668836
987,-0.0000886917114257813,0.000234631017340665
988,-0.000353813171386719,0.000161492292612802
989,-0.000498294830322266,0.00015973973629921
990,-0.00043487548828125,0.000191211105878481
991,-0.000701904296875,0.000182124330537297
992,-0.000150680541992187,0.000184382515310623
993,-0.000438213348388672,0.000131924564100575
994,-0.000492572784423828,0.000149389360371159
995,-0.000396728515625,0.000166374490978813
996,-0.000325202941894531,0.000198662057496479
997,-0.000362396240234375,0.000212945032440286
998,-0.000426769256591797,0.000189726069128017
999,-0.000248908996582031,0.000172219428983831
1000,-0.000242233276367187,0.00024281079989928
1001,-0.000242710113525391,0.000234491429864265
1002,-0.000485420227050781,0.000202529531303361
1003,-0.00035858154296875,0.000190925502872348
1004,-0.000268936157226562,0.000274916368587486
1005,-0.00030517578125,0.000229916617617009
1006,-0.000452518463134766,0.00027928820885038
1007,-0.000581264495849609,0.000288135930346495
1008,-0.000357151031494141,0.000270036381269906
1009,-0.0004119873046875,0.000257619190624018
1010,-0.000766754150390625,0.000288344182631233
1011,-0.0000410079956054688,0.00027237045330618
1012,-0.000703334808349609,0.000371262361468397
1013,-0.00054931640625,0.000343200873887594
1014,-0.000763893127441406,0.000405274557778522
1015,0.0000281333923339844,0.000275946615147272
1016,-0.000652790069580078,0.000254979056515503
1017,-0.000159740447998047,0.000268428404333928
1018,0.0000805854797363281,0.000347755217797437
1019,-0.000298976898193359,0.000385803401894476
1020,-0.000117778778076172,0.000364647947202781
1021,0.0000619888305664063,0.00035646503864208
1022,-0.000198841094970703,0.000268184341482129
1023,-0.000429630279541016,0.000307414663722831
1024,-0.0000762939453125,0.00028981658803135
1025,0.000123500823974609,0.000406663547189535
1026,-0.0000720024108886719,0.000460781639325491
1027,-0.000830173492431641,0.000393653839390496
1028,0.000539302825927734,0.000376661515845411
1029,0.0000667572021484375,0.000316958648340501
1030,-0.000395298004150391,0.000362677214268015
1031,-0.0000143051147460937,0.000494485421000709
1032,-0.000738620758056641,0.000413415341221354
1033,-0.000645637512207031,0.000407851618821676
1034,-0.000679492950439453,0.000496467864154446
1035,0.000287532806396484,0.000578816675902388
1036,-0.000168800354003906,0.00039638908244084
1037,-0.000467300415039063,0.000479894374215966
1038,0.000199794769287109,0.000593403104723948
1039,-0.000100135803222656,0.000505573328990231
1040,-0.000921249389648438,0.000724049237287869
1041,-0.000337600708007812,0.000642433980815882
1042,0.000123500823974609,0.000458613243107087
1043,-0.000564098358154297,0.000782003635258103
1044,-0.00040435791015625,0.000839424111631289
1045,-0.000832080841064453,0.000838331257838574
1046,0.000521659851074219,0.000589996918786669
1047,-0.000215530395507812,0.000678598082373999
1048,0.000172615051269531,0.000915384281424922
1049,0.00173425674438477,0.000927559936587368
1050,-0.00103473663330078,0.000761832387712798
1051,-0.000154972076416016,0.00072211725522473
1052,-0.000496387481689453,0.000710926944004542
1053,0.000283241271972656,0.000891350361888283
1054,-0.00000524520874023438,0.000682457763381083
1055,-0.000265121459960937,0.00108326656184685
1056,0.000281810760498047,0.000540072762539813
1057,0.000199317932128906,0.000691607875574316
1058,0.000102519989013672,0.00108151881447163
1059,0.00051116943359375,0.00106300767697752
1060,0.000690460205078125,0.00072891668167091
1061,-0.000648021697998047,0.00101711590166267
1062,0.000989913940429688,0.00110146369727713
1063,-0.00127124786376953,0.00114377322010536
1064,0.00103521347045898,0.00100061479869756
1065,0.000512123107910156,0.00142246782342307
1066,0.000169754028320312,0.0011746542478337
1067,-0.00130176544189453,0.000960698012615796
1068,0.00203657150268555,0.00125328916445883
1069,-0.00131702423095703,0.00121218570858576
1070,-0.000882625579833984,0.00156452822177586
1071,-0.000646591186523438,0.00130129830219462
1072,0.00143861770629883,0.00149177588532718
1073,-0.00139904022216797,0.00129069874693649
1074,0.000599384307861328,0.00143684004582238
1075,-0.000294685363769531,0.00163361710249393
1076,-0.00272321701049805,0.00145435552127861
1077,0.00174665451049805,0.001128841048473
1078,0.00136280059814453,0.00149130758335823
1079,-0.000123500823974609,0.00179220957048191
1080,0.00110912322998047,0.0012808069751232
1081,-0.00188064575195312,0.001518690342379
1082,-0.00263786315917969,0.00189095124472164
1083,-0.00136280059814453,0.00186204122671105
1084,0.00243234634399414,0.00284550847190919
1085,0.000559329986572266,0.0027918163669835
1086,-0.000555515289306641,0.00241416997577711
1087,0.00122499465942383,0.00180011679705866
1088,-0.000552654266357422,0.00235687791289537
1089,-0.00267410278320312,0.00203600510304211
1090,-0.000195503234863281,0.00205325703813249
1091,0.000459671020507813,0.00237831613897882
1092,-0.00147008895874023,0.0021039430118583
1093,0.000796318054199219,0.00204638509493167
1094,0.00258111953735352,0.00233384662684561
1095,0.00139713287353516,0.00248193479752197
1096,-0.0057220458984375,0.002969314872809
1097,-0.00258398056030273,0.00230634968834223
1098,0.00142765045166016,0.00300803332323242
1099,-0.00481176376342773,0.00317778707224944
1100,0.000586509704589844,0.0022851533156156
