Wavelength (nm),Absorbance (AU),Std.Dev.
190,1.16096115112305,0.714704989947776
191,1.41839981079102,0.359321922031406
192,0.702272415161133,0.203462760048522
193,0.99604606628418,0.403319130219211
194,1.12639379501343,0.31287209292809
195,0.780953407287598,0.178243390275089
196,1.46443510055542,0.21700352622828
197,1.2630443572998,0.160676437038645
198,1.17363262176514,0.209754167808618
199,1.50022554397583,0.431317929432571
200,2.17651844024658,0.765425675584344
201,2.0962872505188,0.386323977796244
202,1.91272830963135,0.197922020555327
203,2.75616312026978,0.41172505035502
204,3.49839115142822,0.427596117781027
205,3.27858257293701,0.321281641726612
206,3.48800420761108,0.210172041402525
207,3.69684028625488,0.158380855990974
208,3.99999952316284,0.272487187915551
209,3.32793951034546,0.0792099951245846
210,3.33481359481812,0.176846813746323
211,3.66066026687622,0.554577453872541
212,3.90613698959351,1.09926067128662
213,3.98720264434814,0.523845456695007
214,3.65121269226074,0.124094544699475
215,3.45467329025269,0.174074833705198
216,3.67694234848022,0.287945211921225
217,3.67772960662842,0.284084028680886
218,3.8823390007019,0.279651763167297
219,3.53101396560669,0.458564468826699
220,3.99999952316284,0.273283997091682
221,3.65998697280884,0.11268194109365
222,3.39566421508789,0.127462918742264
223,3.54092025756836,0.140845232278435
224,3.35643005371094,0.0735524029409886
225,3.199387550354,0.0547909439484056
226,3.07782745361328,0.044952382219136
227,2.96790504455566,0.0297105198002517
228,2.81120777130127,0.0209705285854418
229,2.59121465682983,0.0138889518047603
230,2.48930883407593,0.00675811061311836
231,2.38645267486572,0.00544548535722546
232,2.26589918136597,0.00464769790279353
233,2.17993927001953,0.00407852332409747
234,2.10163116455078,0.00287578588608148
235,2.0257248878479,0.00312473772855718
236,1.97078943252563,0.00290069539944537
237,1.92523908615112,0.00296704004633453
238,1.89642524719238,0.00232490072743431
239,1.87602186203003,0.00156735322157833
240,1.86929082870483,0.00104168479625502
241,1.88000822067261,0.000853077534911468
242,1.89732265472412,0.0011359602258841
243,1.91634178161621,0.00137824120031658
244,1.95639991760254,0.00192795871600307
245,2.00984668731689,0.0026341637842345
246,2.07260799407959,0.00298908733890022
247,2.1345386505127,0.00467088456643302
248,2.23367738723755,0.00578982078744321
249,2.30323076248169,0.00610046310386634
250,2.39768123626709,0.010644118274762
251,2.54217481613159,0.0143683032317724
252,2.62609052658081,0.0178865293120803
253,2.75911855697632,0.0254989660090826
254,2.83382844924927,0.0251174314495954
255,2.96442651748657,0.0438291922862613
256,2.96794605255127,0.0478079460817669
257,3.01342725753784,0.0345956827810905
258,3.05061340332031,0.0397064536184467
259,3.1107873916626,0.0679921778499505
260,3.0978569984436,0.0653585930215966
261,3.16550540924072,0.125445525607809
262,3.39435482025147,0.257108710307558
263,3.39390230178833,0.129419403564701
264,2.96109247207642,0.0681725264489058
265,3.01282501220703,0.0590941361566491
266,3.15398836135864,0.0833088520965599
267,3.21776819229126,0.12282772833684
268,3.28325366973877,0.0940141136449902
269,3.06353855133057,0.0818974448153613
270,3.01865243911743,0.0854464285258731
271,2.96140861511231,0.0553203478057365
272,2.79473161697388,0.0338616974108533
273,2.68337821960449,0.0194034207995331
274,2.6104097366333,0.0106309857056972
275,2.43287038803101,0.00876401936178188
276,2.21147966384888,0.00849617267440443
277,1.99100399017334,0.00590102966141272
278,1.78730344772339,0.00391910345622037
279,1.61958885192871,0.0023013977235233
280,1.47400760650635,0.00124616298513092
281,1.34535694122314,0.00061542074847108
282,1.24115705490112,0.000436828644195381
283,1.15881443023682,0.000666568546863505
284,1.08532524108887,0.000526289990838449
285,1.02332830429077,0.00055828977446877
286,0.969225883483887,0.000502932789246707
287,0.923699855804443,0.000392802694958135
288,0.884822845458984,0.000271125431813571
289,0.850896835327148,0.000230619667787197
290,0.821989059448242,0.000309766571817959
291,0.793942451477051,0.000208917808570937
292,0.770280838012695,0.000254271821796348
293,0.750231742858887,0.000311114230053018
294,0.732236862182617,0.000223879996906169
295,0.715132713317871,0.000252563497765505
296,0.69921350479126,0.000179442889024806
297,0.68565034866333,0.000222698778819458
298,0.673082828521729,0.000218651545828964
299,0.660538196563721,0.000282216707555841
300,0.649941921234131,0.000201299843374979
301,0.639789581298828,0.000213009088261623
302,0.629622936248779,0.000176628104389463
303,0.620837688446045,0.00026271607093618
304,0.611915111541748,0.000270534392713886
305,0.603806972503662,0.000304208653550156
306,0.596344947814941,0.000320848696902877
307,0.589754104614258,0.000307035738682271
308,0.583284854888916,0.000363518833334395
309,0.576109886169434,0.000362947947514228
310,0.568918704986572,0.000200398722679276
311,0.563079833984375,0.000246291816001765
312,0.557915687561035,0.000336883343111578
313,0.551796436309814,0.000249746164430182
314,0.546404838562012,0.000214184296243741
315,0.541622161865234,0.00020256096360302
316,0.537317276000977,0.00020797972982077
317,0.531786918640137,0.000202471144086541
318,0.527273178100586,0.000231155388708893
319,0.522595405578613,0.000310253575735784
320,0.518614292144775,0.000308949267617946
321,0.51422119140625,0.000323029636602915
322,0.50961446762085,0.00026644233605339
323,0.505472660064697,0.000319057867760756
324,0.500754356384277,0.000235323847923558
325,0.496580123901367,0.000219071258779316
326,0.492225646972656,0.000317881266113276
327,0.487973213195801,0.000292987624196204
328,0.482719421386719,0.000316407235682683
329,0.478105068206787,0.000242454697942505
330,0.472904205322266,0.000153745787906786
331,0.46757173538208,0.000164646284747163
332,0.462063789367676,0.000273696221414958
333,0.456827640533447,0.000262909865419201
334,0.451157569885254,0.000217738696179662
335,0.444952011108398,0.000235887443189475
336,0.439292907714844,0.000205489707805314
337,0.432930946350098,0.00025442915495947
338,0.425799369812012,0.000212050508265492
339,0.41893482208252,0.000229774166167388
340,0.411355972290039,0.000219771758040821
341,0.404452323913574,0.000187512840015134
342,0.396324634552002,0.000249461951956828
343,0.387998580932617,0.000232798132057036
344,0.380568981170654,0.000250625900663211
345,0.37183666229248,0.000210059622372353
346,0.363322257995605,0.000154874477464356
347,0.354084491729736,0.000174863409190161
348,0.345612525939941,0.00013463368600144
349,0.336843967437744,0.000127685559183416
350,0.32753324508667,0.000139223385550649
351,0.317995548248291,0.000188209988163891
352,0.308823108673096,0.000181323560159984
353,0.299659252166748,0.000160115073161696
354,0.289744853973389,0.000171674621918767
355,0.280852794647217,0.000157745919251521
356,0.270975112915039,0.000144663309404268
357,0.261801719665527,0.000169994954790232
358,0.252262115478516,0.000196267008432112
359,0.242744922637939,0.00019972135246477
360,0.233874320983887,0.00013684146453032
361,0.224589824676514,0.00025246264812888
362,0.216062545776367,0.000349945199430313
363,0.207666873931885,0.000252008325329542
364,0.199789047241211,0.000166852128608745
365,0.192281723022461,0.000166852128608745
366,0.185123920440674,0.000150951913728243
367,0.179528713226318,0.000165225279447233
368,0.173001289367676,0.000138762070938836
369,0.166614532470703,0.000107756757827688
370,0.159684658050537,0.000170470451137576
371,0.153475761413574,0.000206452318233258
372,0.146942615509033,0.000186545132016989
373,0.140829563140869,0.000166653051901368
374,0.134704113006592,0.000187440071301438
375,0.129615783691406,0.000164225929397201
376,0.123794555664062,0.00014408374669847
377,0.118316650390625,0.000156788814314735
378,0.112706661224365,0.000170379728521876
379,0.107868194580078,0.000141034212614436
380,0.102770328521729,0.000152498457449031
381,0.0985174179077148,0.000247933313420018
382,0.0941038131713867,0.000149881683783547
383,0.0892224311828613,0.000158476454701503
384,0.0851235389709473,0.000194652380606712
385,0.0812783241271973,0.000128678904799808
386,0.077488899230957,0.0000904483545590935
387,0.0736474990844727,0.000107346624872247
388,0.0701098442077637,0.000138745684104861
389,0.0669989585876465,0.000192131650062033
390,0.0639204978942871,0.000159918984236247
391,0.0611634254455566,0.000165431572171243
392,0.0575704574584961,0.000173793898183679
393,0.0551772117614746,0.000163142431490655
394,0.052274227142334,0.000161218918205237
395,0.0503411293029785,0.000174826997193743
396,0.0474433898925781,0.000174931011361199
397,0.045684814453125,0.000172113776123372
398,0.0430660247802734,0.000205104285513017
399,0.0408077239990234,0.000220255413991502
400,0.0391631126403809,0.000208377292553779
401,0.0375332832336426,0.000164452833517455
402,0.0358099937438965,0.000221601572484329
403,0.0336160659790039,0.000189807544967605
404,0.0323829650878906,0.00013125760220149
405,0.0308022499084473,0.000125982506883453
406,0.0292835235595703,0.000156669853550221
407,0.0282831192016602,0.000164347721776885
408,0.0267324447631836,0.000138647322428789
409,0.0256595611572266,0.000208058428874161
410,0.0246214866638184,0.000194086196206817
411,0.0231971740722656,0.000163217674623893
412,0.0223355293273926,0.000194871859892153
413,0.0212669372558594,0.000137993081605636
414,0.0206365585327148,0.000154830427724433
415,0.0191864967346191,0.000186291435203692
416,0.0188593864440918,0.000159314998171475
417,0.0179572105407715,0.000143947969039138
418,0.0170879364013672,0.000166426415114286
419,0.0161705017089844,0.000131216021122664
420,0.0157527923583984,0.000116486935761489
421,0.0150113105773926,0.000130886371340162
422,0.0145730972290039,0.000120970119250691
423,0.0138759613037109,0.000110663210505445
424,0.0134263038635254,0.000116019487958874
425,0.0130348205566406,0.000188432144702583
426,0.0124435424804687,0.000240405387458065
427,0.0119838714599609,0.000209908028245923
428,0.0115599632263184,0.000154806929404716
429,0.0114850997924805,0.000129562894806433
430,0.0103607177734375,0.000118721919377704
431,0.0104913711547852,0.000160208769980715
432,0.0104551315307617,0.000143625378436096
433,0.00960683822631836,0.000173631593825459
434,0.00954103469848633,0.000122174576101157
435,0.00933980941772461,0.000106820038047377
436,0.00895404815673828,0.000144854935244206
437,0.00895214080810547,0.000179696132100126
438,0.00847291946411133,0.000135189851808954
439,0.00794172286987305,0.000113857291078439
440,0.00786256790161133,0.000165137182784373
441,0.00762414932250977,0.000158969241626997
442,0.00766420364379883,0.000126414917651566
443,0.00718212127685547,0.000162318058193351
444,0.00751447677612305,0.000133698200693372
445,0.00714588165283203,0.000108683312607207
446,0.00685596466064453,0.000134190482525409
447,0.00662708282470703,0.000124069326698853
448,0.00671768188476563,0.0000959308195518488
449,0.00634622573852539,0.000093170124938586
450,0.00646257400512695,0.00012919031415797
451,0.00635814666748047,0.000151162643822285
452,0.00618076324462891,0.000129404854812496
453,0.00616455078125,0.000130123260268511
454,0.00605201721191406,0.000133630157429413
455,0.00603532791137695,0.000166229564245549
456,0.00592899322509766,0.000133769608870559
457,0.00570297241210938,0.0000825121201024231
458,0.00560522079467773,0.000107075161501394
459,0.00556802749633789,0.000152653441654048
460,0.00550508499145508,0.00014875179528138
461,0.00575923919677734,0.000100834994017308
462,0.00546789169311523,0.000123289841230861
463,0.00513839721679688,0.000120823422638813
464,0.00535869598388672,0.000118980187565391
465,0.00530004501342773,0.000128915463329644
466,0.00533723831176758,0.000116522065101066
467,0.00532007217407227,0.00015089767842345
468,0.00512599945068359,0.000136585340804811
469,0.0051569938659668,0.000144023767702887
470,0.00505304336547852,0.000125490640133829
471,0.00513601303100586,0.000095281562293538
472,0.00493288040161133,0.0000914160383479866
473,0.00479936599731445,0.000118270996077938
474,0.00478553771972656,0.000121941722255496
475,0.0048670768737793,0.000103102735532681
476,0.00483369827270508,0.00010243012681654
477,0.00471353530883789,0.000149170028402412
478,0.00461864471435547,0.000113158189744539
479,0.00458383560180664,0.0000883475157014348
480,0.00450611114501953,0.0000848408418363844
481,0.004547119140625,0.000130820341702891
482,0.00444698333740234,0.000142914388770742
483,0.00433969497680664,0.0000993058460077948
484,0.00450706481933594,0.0000815028952128329
485,0.0040583610534668,0.0000886994020142566
486,0.00420427322387695,0.0000946230447174661
487,0.004547119140625,0.0000927445208193857
488,0.004364013671875,0.0000815056849270339
489,0.00422382354736328,0.000104081657331238
490,0.00424671173095703,0.0000946590819830136
491,0.00400543212890625,0.0000966651362488827
492,0.00395107269287109,0.0000764383499158945
493,0.00409746170043945,0.0000791362947245633
494,0.00399160385131836,0.000100487138114457
495,0.00394058227539062,0.0000977876643265426
496,0.00406837463378906,0.000105664359927861
497,0.00378274917602539,0.0000871947301129534
498,0.00399494171142578,0.0000892055149257165
499,0.00376653671264648,0.0000922257797526289
500,0.00375652313232422,0.0000892564778611613
501,0.00381278991699219,0.0000846382597795729
502,0.00372219085693359,0.0000910122134463114
503,0.00365591049194336,0.0000928939488364099
504,0.00375747680664062,0.000119702273491699
505,0.00372314453125,0.0000755617652259064
506,0.00351142883300781,0.0000768507073463736
507,0.0036768913269043,0.0000869309581048734
508,0.00362491607666016,0.0000787128025301642
509,0.00361776351928711,0.0000684838433746789
510,0.00361824035644531,0.0000789133082758494
511,0.00350141525268555,0.0000874603063638655
512,0.00363922119140625,0.000090241983354062
513,0.00354337692260742,0.0000785363972547032
514,0.00353288650512695,0.000103845455745168
515,0.00354433059692383,0.0000800745755374273
516,0.00353384017944336,0.000105476982984144
517,0.00354099273681641,0.000103204130016501
518,0.00362300872802734,0.000096136804395697
519,0.00337600708007812,0.000119335108163359
520,0.00354766845703125,0.000131454932709601
521,0.00346231460571289,0.000120970119250691
522,0.00339460372924805,0.00012283162299551
523,0.00335168838500977,0.000111911557896243
524,0.00328254699707031,0.0000918898732791588
525,0.00340795516967773,0.0000796617805576841
526,0.00333118438720703,0.0000873848815075326
527,0.00337553024291992,0.000095431782945742
528,0.00340414047241211,0.0000965215467012987
529,0.00319480895996094,0.000121814862831989
530,0.00337076187133789,0.000122178298155602
531,0.00343608856201172,0.000107849560689759
532,0.00319051742553711,0.000110702241888045
533,0.00305461883544922,0.0000891672736092056
534,0.00341796875,0.0000869178792900335
535,0.00324392318725586,0.000108415196252013
536,0.00327968597412109,0.0000792769560649649
537,0.00319337844848633,0.0000811870400829089
538,0.00322055816650391,0.0000972233430587842
539,0.0032048225402832,0.0000736200129145623
540,0.00324392318725586,0.0000758171081542969
541,0.00322103500366211,0.0000692908545961102
542,0.00321388244628906,0.0000633224665220915
543,0.00325727462768555,0.0000729654343542425
544,0.00316572189331055,0.0000566754612948721
545,0.0032811164855957,0.000081023038435972
546,0.00319814682006836,0.0000927837383361527
547,0.00321626663208008,0.0000654900728346342
548,0.00307798385620117,0.0000757931125503714
549,0.00312042236328125,0.000098616564765043
550,0.00312995910644531,0.0000942836211392446
551,0.00296926498413086,0.0000742825979328696
552,0.00301551818847656,0.0000755632697660076
553,0.00304412841796875,0.0000717017864174033
554,0.00312137603759766,0.0000793242654817302
555,0.00308132171630859,0.000106971059592565
556,0.00301551818847656,0.0000779231288046849
557,0.00302982330322266,0.0000825823590196133
558,0.00303792953491211,0.0000669289831082702
559,0.00305652618408203,0.000064811274328918
560,0.00292253494262695,0.0000939453915101986
561,0.00304365158081055,0.0000751680506250117
562,0.00299358367919922,0.0000912417653965469
563,0.00296115875244141,0.000102256836379204
564,0.00284957885742187,0.0000988123492832919
565,0.00299453735351562,0.000075591850338273
566,0.00295543670654297,0.000073077530850017
567,0.00289678573608398,0.0000691742654438977
568,0.00290870666503906,0.0000643429862725563
569,0.00284624099731445,0.0000653927879361391
570,0.00284576416015625,0.000089213161221957
571,0.00297832489013672,0.0000813381327199716
572,0.00297117233276367,0.0000678333330298953
573,0.00291681289672852,0.00007460939835035
574,0.00287055969238281,0.0000707328096038386
575,0.00288963317871094,0.0000798314270760479
576,0.002899169921875,0.0000819077997972599
577,0.00290203094482422,0.0000854257461972123
578,0.00275182723999023,0.0000553110549807965
579,0.00298452377319336,0.0000665234834111355
580,0.00281763076782227,0.0000525689989569617
581,0.00275039672851562,0.0000550772719996723
582,0.00279951095581055,0.0000652361332642499
583,0.00304937362670898,0.0000966439643219228
584,0.00279045104980469,0.0000941943499534118
585,0.00271081924438477,0.0000742320754415955
586,0.00292205810546875,0.0000586441857980534
587,0.00278568267822266,0.0000653092855391911
588,0.00276851654052734,0.0000823120937703411
589,0.00271272659301758,0.000076730788813403
590,0.00273752212524414,0.0000822540642551407
591,0.00266695022583008,0.0000917536795281863
592,0.00262975692749023,0.0000584354161258946
593,0.00262737274169922,0.0000669663422979549
594,0.00267410278320312,0.0000669782249428497
595,0.00267601013183594,0.0000723473704339225
596,0.00261163711547852,0.0000701129008320343
597,0.00257253646850586,0.0000766522220625636
598,0.00260734558105469,0.0000955198976558602
599,0.00255346298217773,0.0000888991237923966
600,0.00257062911987305,0.0000715780065995299
601,0.00267934799194336,0.0000836628425577595
602,0.00253486633300781,0.000061670734300306
603,0.0025172233581543,0.0000660948593030564
604,0.00249814987182617,0.00008740309346666
605,0.00257253646850586,0.0000659984658947918
606,0.00249719619750977,0.0000657879769567504
607,0.00247049331665039,0.0000617886023823756
608,0.00246477127075195,0.0000694645531206836
609,0.00257349014282227,0.0000646250699848077
610,0.00243902206420898,0.0000570224275673699
611,0.00253868103027344,0.0000539311047195385
612,0.00243139266967773,0.0000627054460907489
613,0.00243902206420898,0.0000691331661202981
614,0.00245571136474609,0.0000727297819707398
615,0.00231075286865234,0.0000798143362115669
616,0.00231742858886719,0.0000582249216475092
617,0.00232362747192383,0.0000565167708970225
618,0.00239276885986328,0.0000668320916955833
619,0.00234079360961914,0.0000555980675711912
620,0.00231075286865234,0.0000704090068506068
621,0.00234603881835937,0.0000691759089089422
622,0.00230836868286133,0.0000876395045425999
623,0.00241756439208984,0.0000790644323255456
624,0.0023036003112793,0.0000770722860109549
625,0.002227783203125,0.0000718475090284117
626,0.00235843658447266,0.0000835595046988119
627,0.00227832794189453,0.0000809851447375383
628,0.00213384628295898,0.0000799125587658074
629,0.00225353240966797,0.0000933334894535777
630,0.00213241577148437,0.0000726328026282469
631,0.00229263305664062,0.0000659640055405759
632,0.00226449966430664,0.000087395288806028
633,0.00217151641845703,0.0000789478764201411
634,0.00229406356811523,0.0000461954070322197
635,0.0022120475769043,0.0000544732975995753
636,0.00222301483154297,0.0000824238924618847
637,0.00228595733642578,0.0000681093071936048
638,0.00219249725341797,0.0000613361625298137
639,0.00217628479003906,0.0000539932549462931
640,0.00212526321411133,0.0000591028068354996
641,0.00226688385009766,0.0000666020497749282
642,0.00213813781738281,0.0000822291819266788
643,0.00216007232666016,0.0000929428893323167
644,0.00220870971679687,0.0000706684894945063
645,0.00214099884033203,0.0000819605262751213
646,0.00211715698242187,0.0000924277216734953
647,0.00214624404907227,0.000090604079258069
648,0.00214385986328125,0.0000979433273222324
649,0.00221109390258789,0.0000765349634269759
650,0.00202608108520508,0.0000814317252096898
651,0.0020751953125,0.0000598150354838729
652,0.00218439102172852,0.0000628304206021685
653,0.00199794769287109,0.0000689981885010787
654,0.0021052360534668,0.0000856676141974387
655,0.00208711624145508,0.0000920974895897512
656,0.00189971923828125,0.000060897164519205
657,0.0031132698059082,0.0000573871093114105
658,0.00235748291015625,0.0000659157307783561
659,0.00212192535400391,0.000086975411364341
660,0.00210094451904297,0.0000767278254909923
661,0.00213003158569336,0.0000736940990715105
662,0.00209569931030273,0.0000700431423840951
663,0.00206089019775391,0.0000570104639835818
664,0.00212192535400391,0.0000829148385435416
665,0.00209903717041016,0.0000965262579421412
666,0.00205039978027344,0.0000627978425337003
667,0.00205087661743164,0.0000693941429244011
668,0.00209188461303711,0.000059674222390863
669,0.00207948684692383,0.0000584412523722138
670,0.00211763381958008,0.0000697829635868791
671,0.00209188461303711,0.0000578635555227927
672,0.00209856033325195,0.000060122150704701
673,0.00210809707641602,0.0000621170771388324
674,0.00206804275512695,0.0000595263921139802
675,0.00205421447753906,0.0000681159835948553
676,0.00203990936279297,0.0000628467033035496
677,0.00211238861083984,0.0000560501746081057
678,0.00212383270263672,0.0000741339942883045
679,0.0020289421081543,0.0000745773925195625
680,0.00204896926879883,0.0000777156801475647
681,0.00197124481201172,0.0000776556798959703
682,0.00202465057373047,0.0000692810095813177
683,0.00206184387207031,0.0000845024868113046
684,0.00205659866333008,0.0000560440893634004
685,0.00202322006225586,0.0000678584679688271
686,0.00211191177368164,0.0000687605134300681
687,0.00205850601196289,0.0000718221872040987
688,0.00207233428955078,0.000086075381000131
689,0.00200939178466797,0.0000846852590310438
690,0.00200796127319336,0.0000664396909614645
691,0.00199747085571289,0.0000664550893320737
692,0.00208234786987305,0.0000680742453443923
693,0.00200319290161133,0.0000591796985701356
694,0.00199270248413086,0.0000683741920668047
695,0.0019683837890625,0.0000788066277102151
696,0.00198125839233398,0.0000670698202992143
697,0.00198602676391602,0.0000610630895352795
698,0.0020298957824707,0.0000682810165050541
699,0.00203704833984375,0.0000747707424852675
700,0.001922607421875,0.0000767678206920916
701,0.00189924240112305,0.0000594489926260477
702,0.00194168090820312,0.0000688645972087218
703,0.00196075439453125,0.0000767752249243879
704,0.00195837020874023,0.000055372682916326
705,0.00186824798583984,0.0000495348666955473
706,0.00184917449951172,0.0000566042060937905
707,0.00192117691040039,0.0000603693544510942
708,0.00188589096069336,0.0000511050655314978
709,0.00186586380004883,0.0000633511858235384
710,0.0019230842590332,0.0000686347419885358
711,0.00184059143066406,0.0000571488886511941
712,0.00190639495849609,0.0000658484319532549
713,0.00189113616943359,0.0000686926916525579
714,0.00185441970825195,0.0000697193978289071
715,0.00191020965576172,0.0000792066566194386
716,0.00189113616943359,0.0000725670333089706
717,0.00190544128417969,0.0000684489733756705
718,0.00184774398803711,0.0000607785029273383
719,0.00192928314208984,0.0000734453066997153
720,0.00187921524047852,0.0000582941958203115
721,0.00194787979125977,0.0000555428305761758
722,0.00190591812133789,0.0000683276201683908
723,0.00194358825683594,0.0000644718400604305
724,0.00191926956176758,0.0000589139979600853
725,0.00185346603393555,0.0000663146609487491
726,0.00192165374755859,0.0000664739047187975
727,0.00198888778686523,0.0000686446796910404
728,0.00198078155517578,0.00007381741076465
729,0.00191259384155273,0.0000617444282195298
730,0.00194787979125977,0.0000617573156143041
731,0.00193071365356445,0.0000614213645481286
732,0.00196933746337891,0.0000590912644456159
733,0.00191450119018555,0.0000597218315177981
734,0.00196266174316406,0.0000747996258789549
735,0.00187921524047852,0.0000650511450604368
736,0.00189065933227539,0.0000647305344568379
737,0.00194311141967773,0.0000688877055807181
738,0.00188302993774414,0.0000688662480638733
739,0.00183200836181641,0.0000694890980326261
740,0.00192546844482422,0.0000695087277217274
741,0.00189828872680664,0.0000545858803157541
742,0.00185346603393555,0.0000410156187468337
743,0.00189399719238281,0.0000599450879280766
744,0.00190210342407227,0.0000523978733440302
745,0.00189590454101562,0.0000744858715092353
746,0.00190114974975586,0.000073771193034502
747,0.00186920166015625,0.0000700025531902411
748,0.00190353393554687,0.0000721821845941342
749,0.00182962417602539,0.0000585131848801976
750,0.00182867050170898,0.000051221722354285
751,0.00185823440551758,0.0000634049994520289
752,0.00185823440551758,0.0000550855279145771
753,0.0019373893737793,0.0000554044971579145
754,0.00184154510498047,0.0000641270636632171
755,0.00187349319458008,0.0000528687487295061
756,0.00184488296508789,0.0000585840587871638
757,0.00187778472900391,0.0000530597856133824
758,0.00196599960327148,0.0000517077078348767
759,0.00193643569946289,0.0000666242365209747
760,0.00190973281860352,0.0000629479232536643
761,0.00191497802734375,0.0000707504873826517
762,0.00187349319458008,0.000081286401128235
763,0.001861572265625,0.0000704767900805464
764,0.00188636779785156,0.0000618364221145502
765,0.00191307067871094,0.0000529407367756721
766,0.0019536018371582,0.000057009466904941
767,0.00193548202514648,0.0000793285649387554
768,0.0018925666809082,0.0000736431728449554
769,0.00186967849731445,0.0000652221901952658
770,0.00195026397705078,0.0000590113677713949
771,0.00186777114868164,0.0000682943350825456
772,0.00191545486450195,0.000064411858037264
773,0.00196409225463867,0.0000550875916999745
774,0.00191402435302734,0.0000636233726229274
775,0.00191116333007812,0.0000514022936792521
776,0.00186777114868164,0.0000627308233717366
777,0.00191068649291992,0.0000572095304225407
778,0.00183486938476562,0.0000483360962637337
779,0.00183773040771484,0.0000585296974284462
780,0.00187158584594727,0.0000606746007741408
781,0.00180768966674805,0.0000561464364246093
782,0.00183677673339844,0.0000694449109449422
783,0.00184154510498047,0.0000660156893262536
784,0.00170564651489258,0.0000399128652638989
785,0.00186634063720703,0.0000518482301025342
786,0.00186872482299805,0.0000551195704924527
787,0.00182390213012695,0.0000544210970992484
788,0.00184774398803711,0.0000682926704024054
789,0.00181388854980469,0.0000847255233528733
790,0.00179719924926758,0.0000702522099237511
791,0.00183582305908203,0.0000614768674642536
792,0.00179481506347656,0.0000613843347234882
793,0.00190305709838867,0.000076134335933758
794,0.00182390213012695,0.0000705283907208408
795,0.00181341171264648,0.0000602270059387471
796,0.0018315315246582,0.00006124341719819
797,0.00184297561645508,0.0000572849942902541
798,0.001800537109375,0.000060631490040788
799,0.00186777114868164,0.0000651559198707269
800,0.00183629989624023,0.0000759040286286312
801,0.00184535980224609,0.0000593274345969993
802,0.00190258026123047,0.0000524715907510159
803,0.00194454193115234,0.0000674686666710815
804,0.00192737579345703,0.0000646637602633889
805,0.00190973281860352,0.0000570871867421039
806,0.00190973281860352,0.0000658363453950349
807,0.00187206268310547,0.0000627435081631887
808,0.00189399719238281,0.000065666899993687
809,0.00189733505249023,0.000060375003750461
810,0.0018916130065918,0.0000587420028474216
811,0.00191307067871094,0.0000606858420156961
812,0.00189065933227539,0.0000559120797651903
813,0.00187397003173828,0.0000588039017084808
814,0.00181388854980469,0.0000698546093589192
815,0.00192356109619141,0.0000854709823174837
816,0.0019383430480957,0.0000626310677599116
817,0.00183725357055664,0.0000539858849314462
818,0.00176763534545898,0.0000566102311294931
819,0.00181674957275391,0.0000678132183710475
820,0.00190019607543945,0.0000588425554309935
821,0.00184202194213867,0.0000599602581391073
822,0.00191736221313477,0.0000662185875032285
823,0.00183439254760742,0.0000600133236791697
824,0.00174093246459961,0.0000653527896843407
825,0.00185871124267578,0.0000656755557506605
826,0.00176334381103516,0.0000729217947364906
827,0.00181245803833008,0.0000696051598399457
828,0.00192928314208984,0.0000822526821010317
829,0.00185012817382812,0.0000579568055306956
830,0.00183534622192383,0.00006793549046078
831,0.00181818008422852,0.0000604530982282883
832,0.00178432464599609,0.0000536595428509726
833,0.00181341171264648,0.0000558897088312251
834,0.00179815292358398,0.0000746596655061542
835,0.00171422958374023,0.0000834546766364932
836,0.00178718566894531,0.000050669417366566
837,0.00181102752685547,0.0000573365702357228
838,0.00174665451049805,0.0000687208210003048
839,0.00180721282958984,0.0000645070975497006
840,0.00179052352905273,0.0000457117498825335
841,0.00180292129516602,0.0000720781597309643
842,0.00188159942626953,0.0000595053799893543
843,0.00185966491699219,0.0000665303189519891
844,0.0018463134765625,0.000054938800994117
845,0.00188541412353516,0.0000585695026563487
846,0.00187015533447266,0.0000735659447224041
847,0.00187110900878906,0.0000762715902955687
848,0.00183868408203125,0.0000708757124237022
849,0.00182867050170898,0.0000789118676078814
850,0.00183296203613281,0.0000737311142338988
851,0.0017857551574707,0.0000769600992178463
852,0.00186777114868164,0.0000734391147925509
853,0.00186586380004883,0.0000779450101535895
854,0.00187063217163086,0.0000633045103423679
855,0.00179290771484375,0.0000706588364281672
856,0.00184535980224609,0.0000692071273295727
857,0.00179195404052734,0.0000706057209728281
858,0.00179433822631836,0.0000818814238261316
859,0.00187063217163086,0.0000707761926334685
860,0.00182247161865234,0.0000687059304272706
861,0.00174093246459961,0.0000756429675682342
862,0.00174522399902344,0.0000682843463929645
863,0.00172662734985352,0.0000661825240054988
864,0.00181245803833008,0.0000722058057078052
865,0.00171518325805664,0.0000648586183122585
866,0.00171184539794922,0.0000646356241757898
867,0.00179719924926758,0.0000536330529434259
868,0.0017242431640625,0.0000812947922712949
869,0.00170373916625977,0.0000611877025214075
870,0.0017094612121582,0.0000567366090816816
871,0.00161027908325195,0.0000572462818370181
872,0.00171327590942383,0.0000738974530218742
873,0.00172805786132812,0.0000757496011440681
874,0.00163555145263672,0.0000737526978328823
875,0.00167608261108398,0.0000780747133517479
876,0.0016484260559082,0.0000721049683633863
877,0.00171947479248047,0.0000613343089975609
878,0.00167274475097656,0.000077963969021747
879,0.00162363052368164,0.0000753523418558998
880,0.0017237663269043,0.0000504862248709352
881,0.00174713134765625,0.0000449607124223811
882,0.00164079666137695,0.0000664636424408948
883,0.00175666809082031,0.0000856941514678223
884,0.00167703628540039,0.0000619172636802398
885,0.00174379348754883,0.0000605517481445403
886,0.00178146362304687,0.0000740403897540817
887,0.0016627311706543,0.0000802291803405872
888,0.00181245803833008,0.0000800717359631241
889,0.00169897079467773,0.0000902570996862857
890,0.00173234939575195,0.0000832282345263797
891,0.00161170959472656,0.0000822457709820764
892,0.00181436538696289,0.0000760656158786868
893,0.0016942024230957,0.0000608822277604521
894,0.00186061859130859,0.0000529546932692597
895,0.00172662734985352,0.0000493820075445365
896,0.00178003311157227,0.0000565509570662518
897,0.00170660018920898,0.0000643641854339483
898,0.00175952911376953,0.0000620016671608008
899,0.00179958343505859,0.0000640028447554112
900,0.00178050994873047,0.0000668065705995691
901,0.00179862976074219,0.0000873172038315615
902,0.00176286697387695,0.0000764517344534689
903,0.00176477432250977,0.0000697177671755914
904,0.00170612335205078,0.0000886814562703529
905,0.00184249877929687,0.0000578694494423927
906,0.00186729431152344,0.000081852261548538
907,0.00168228149414062,0.0000931994053054114
908,0.00173330307006836,0.0000787055805758106
909,0.001800537109375,0.0000976992676283036
910,0.00174570083618164,0.0000919789090818747
911,0.00177431106567383,0.000073562853911121
912,0.00171232223510742,0.000084811356684389
913,0.00186061859130859,0.0000807996308345621
914,0.00180387496948242,0.0000674922529912116
915,0.00182914733886719,0.0000839883379223022
916,0.00169849395751953,0.0000884452595108916
917,0.00179338455200195,0.0000575621653987799
918,0.00176572799682617,0.0000559913228724888
919,0.00177478790283203,0.0000714619671605463
920,0.00172090530395508,0.000078960835572636
921,0.00168609619140625,0.0000611988495145204
922,0.0019841194152832,0.0000814694111913385
923,0.00170469284057617,0.0000939405508356361
924,0.00176334381103516,0.0000855068880708015
925,0.00175762176513672,0.0000827226579368646
926,0.00180530548095703,0.000128954259825786
927,0.00162601470947266,0.00010745459499881
928,0.00183534622192383,0.0000851484843603122
929,0.00172567367553711,0.0000771990376043805
930,0.00164270401000977,0.0000957956238086524
931,0.00169944763183594,0.0000788628692376756
932,0.00178813934326172,0.0000948486522971567
933,0.00166559219360352,0.0000814889452092711
934,0.00169229507446289,0.0000769571447252941
935,0.00168848037719727,0.0000889604864390766
936,0.00171661376953125,0.000105601937888415
937,0.00157928466796875,0.0000843017888283141
938,0.00170469284057617,0.000100699608625939
939,0.00162696838378906,0.000116393205687697
940,0.00170755386352539,0.0000776381100748858
941,0.00161886215209961,0.000102800163848364
942,0.00175666809082031,0.0000747677014789629
943,0.00164031982421875,0.0000807982238005643
944,0.00169849395751953,0.0000926586746329584
945,0.00185585021972656,0.000103827937955612
946,0.00167751312255859,0.000123665489973201
947,0.001617431640625,0.0000931090946003641
948,0.00185298919677734,0.0000987617128707465
949,0.00183296203613281,0.000109240468609223
950,0.00166797637939453,0.000111181820632452
951,0.00177478790283203,0.000123393074369596
952,0.0016484260559082,0.0000895844922318831
953,0.00164222717285156,0.0000950091306932987
954,0.00191879272460937,0.0000703411583023778
955,0.00171470642089844,0.0000999676336775105
956,0.00182771682739258,0.000145696967502348
957,0.0015711784362793,0.000106095999813813
958,0.00188589096069336,0.000127582234960946
959,0.00172805786132812,0.000178166169856342
960,0.00173282623291016,0.000122935240917162
961,0.00172519683837891,0.0000849292358736711
962,0.0017547607421875,0.000105548096155339
963,0.00180530548095703,0.00014822197548281
964,0.0018157958984375,0.000114234101655495
965,0.00176048278808594,0.0000833237971989941
966,0.00177812576293945,0.000102831124423313
967,0.00160932540893555,0.000172446363440548
968,0.0019078254699707,0.000109958276475076
969,0.00168037414550781,0.000105070935265042
970,0.00179529190063477,0.0000991270939650443
971,0.00185298919677734,0.000112090207233469
972,0.00165224075317383,0.000140653221623128
973,0.00155115127563477,0.00017006716617584
974,0.00194978713989258,0.00013903053943929
975,0.00176572799682617,0.000140659687694692
976,0.00187349319458008,0.000155229354919654
977,0.00174045562744141,0.000192661095628455
978,0.00176429748535156,0.00016346823493508
979,0.00177955627441406,0.000126252937166912
980,0.00165367126464844,0.00018304088566195
981,0.00150918960571289,0.000167984797264242
982,0.00201797485351562,0.000161032645562786
983,0.00159120559692383,0.000130259483939849
984,0.00165414810180664,0.000156117388583434
985,0.00191926956176758,0.000168249881404661
986,0.00152158737182617,0.000175797127298042
987,0.00174808502197266,0.000179026794895284
988,0.00184345245361328,0.0001492187967007
989,0.00182247161865234,0.000162821562030276
990,0.00183582305908203,0.000168452470137174
991,0.00150060653686523,0.000201444370990367
992,0.00188302993774414,0.00023964376363417
993,0.00152301788330078,0.00021220485780062
994,0.00145959854125977,0.000199625699379821
995,0.00162601470947266,0.000155595113890166
996,0.00164413452148437,0.000194577607769762
997,0.00166654586791992,0.000225930256146236
998,0.00188064575195312,0.000152444772359376
999,0.00196123123168945,0.000147397453966993
1000,0.00225734710693359,0.000243349581922466
1001,0.00145626068115234,0.000232805945516974
1002,0.00205373764038086,0.000202758426482205
1003,0.0015416145324707,0.000185650777586271
1004,0.00198125839233398,0.000214158816818279
1005,0.00172042846679687,0.000251560412921748
1006,0.00185632705688477,0.0002585495321603
1007,0.00176286697387695,0.000279919251833705
1008,0.00179243087768555,0.000263276300132614
1009,0.00168657302856445,0.000298669115159048
1010,0.00170087814331055,0.000279938745949114
1011,0.00177145004272461,0.00026205748594816
1012,0.00173091888427734,0.000320116521032825
1013,0.00145149230957031,0.000324955339784783
1014,0.00166130065917969,0.000231501371047067
1015,0.00216531753540039,0.000175367197177094
1016,0.00174236297607422,0.000269854445547141
1017,0.00204133987426758,0.00029911337783992
1018,0.00219249725341797,0.000318264424536979
1019,0.00161981582641602,0.000365902850574561
1020,0.00219106674194336,0.000243629725663977
1021,0.00204133987426758,0.000278041453115716
1022,0.00189018249511719,0.000334129157111484
1023,0.00225353240966797,0.000388453452759208
1024,0.00165510177612305,0.000315064897648571
1025,0.00220251083374023,0.000316533685926337
1026,0.00217103958129883,0.000317491916096926
1027,0.00170230865478516,0.000275280036602221
1028,0.0027618408203125,0.000252325716293271
1029,0.00207233428955078,0.000279756748045448
1030,0.00210046768188477,0.000315906686596121
1031,0.00245094299316406,0.000537980521930849
1032,0.00168943405151367,0.000505875460173806
1033,0.00129890441894531,0.000376758088294206
1034,0.00196504592895508,0.000331395993078499
1035,0.00201892852783203,0.000602939421695962
1036,0.002593994140625,0.000461625656353938
1037,0.00170755386352539,0.000394060258592392
1038,0.00221443176269531,0.000428147726995878
1039,0.00315713882446289,0.000529625072992206
1040,0.00116300582885742,0.000680054716822644
1041,0.00183439254760742,0.000612778606474458
1042,0.00143718719482422,0.000491119124968862
1043,0.00249624252319336,0.00077890849892723
1044,0.00223112106323242,0.000718561797017426
1045,0.00183820724487305,0.000770889819686345
1046,0.00230169296264648,0.000671332530522505
1047,0.00288152694702148,0.00063514423083327
1048,0.00230979919433594,0.000806445407567166
1049,0.00436639785766602,0.000756195782065666
1050,0.00238895416259766,0.000721169501755192
1051,0.00267601013183594,0.000719775858139405
1052,0.00224494934082031,0.000742465926949509
1053,0.00328636169433594,0.000856482367980785
1054,0.00154542922973633,0.0007747498947013
1055,0.0036158561706543,0.00109860632122738
1056,0.00282907485961914,0.000650335962558779
1057,0.00334405899047852,0.000648868679551061
1058,0.00171041488647461,0.000959773586730787
1059,0.00380468368530273,0.00110119943689155
1060,0.00233936309814453,0.00101427915239574
1061,0.00115633010864258,0.00102316410293203
1062,0.00386381149291992,0.00110999169301187
1063,0.00242519378662109,0.00119783923859463
1064,0.00251293182373047,0.00113362636598111
1065,0.00228786468505859,0.00102736532710809
1066,0.00274658203125,0.0011509011824422
1067,0.00252580642700195,0.00125491364882762
1068,0.00367403030395508,0.00129121726736613
1069,0.00206756591796875,0.00157435657238672
1070,0.00200176239013672,0.00182321778716814
1071,0.000931262969970703,0.00154972516572767
1072,0.00547122955322266,0.0010444749785611
1073,0.00168228149414062,0.00127531896451206
1074,0.00318145751953125,0.00113943928169731
1075,0.00119733810424805,0.00095387266003847
1076,0.00233221054077148,0.00140173385554998
1077,0.00264978408813477,0.0014829313636547
1078,0.0046539306640625,0.00166973966307124
1079,0.00271511077880859,0.00168845930250622
1080,0.000911712646484375,0.00127509073584391
1081,0.0026249885559082,0.00146694826901663
1082,0.00133228302001953,0.00197086621262771
1083,-0.00107288360595703,0.00179077996145997
1084,0.00720071792602539,0.00253447521742995
1085,0.00146865844726562,0.00195467410643309
1086,0.00465917587280273,0.00214151002520424
1087,0.00359201431274414,0.00199190034853795
1088,0.00272703170776367,0.00149668420937547
1089,0.00264978408813477,0.00165531490352759
1090,0.00439977645874023,0.00185326771942428
1091,0.00140571594238281,0.0021916954645258
1092,0.00295400619506836,0.00180086035978772
1093,0.00209331512451172,0.00200157859834485
1094,0.00170278549194336,0.00237767972161088
1095,0.00638914108276367,0.00256075032907693
1096,0.000676155090332031,0.00229623229578053
1097,0.00365209579467773,0.00284534481937293
1098,0.00188684463500977,0.00300632997612636
1099,0.00422096252441406,0.00335006010175994
1100,0.000126838684082031,0.00242542759994164
