Wavelength (nm),Absorbance (AU),Std.Dev.
190,0.514762401580811,0.265337620277214
191,1.43466520309448,0.497130744423216
192,1.71017837524414,0.405695610307354
193,1.20504236221313,0.21210074222764
194,0.949546813964844,0.120673650704556
195,0.998775005340576,0.305606336901408
196,1.72085809707642,0.610488265940929
197,1.81843233108521,0.410360812083403
198,1.4998049736023,0.222904535361588
199,1.32087230682373,0.269333033999034
200,1.51234531402588,0.302576823922454
201,1.70947980880737,0.203954324134125
202,2.27603960037231,0.321269768132664
203,2.85798692703247,0.287627084259479
204,3.14034175872803,0.366417910262227
205,3.95935440063477,0.575532616772282
206,3.75939750671387,0.412567318133887
207,3.46820259094238,0.266005299909754
208,3.78279495239258,0.382822464793775
209,3.99999904632568,0.53410023546469
210,3.51689338684082,1.03243303354261
211,3.99999952316284,0.986465414331326
212,3.95650815963745,0.729977692563701
213,3.56804227828979,1.28141671933597
214,3.95648193359375,0.60919969433522
215,3.34665536880493,0.262642667238773
216,3.99999952316284,0.237756369905549
217,3.97825050354004,0.162922120194083
218,3.8451452255249,0.191196872088652
219,3.55717515945435,0.379710808183758
220,3.94272518157959,0.293833359598414
221,3.58028221130371,0.17608480733726
222,3.45603609085083,0.746144877174919
223,3.70574283599854,1.56900987638303
224,3.80348920822144,0.754543529228102
225,3.59876918792725,0.447466009969612
226,3.99999952316284,0.245138585345903
227,3.53251552581787,0.106932478946815
228,3.43962812423706,0.116389290002958
229,3.26598691940308,0.0627626621799619
230,3.01287794113159,0.0436602352783602
231,3.00099658966064,0.0348881993080504
232,2.78639650344849,0.021768939530596
233,2.70858192443848,0.00968499274263913
234,2.58029127120972,0.00914957504953296
235,2.49841594696045,0.00636567712199727
236,2.42285680770874,0.00583005563293924
237,2.36229705810547,0.00554748800409644
238,2.33092498779297,0.00368492647659267
239,2.29551839828491,0.00276567393329672
240,2.30323123931885,0.00479271738999038
241,2.30895519256592,0.00692325412108787
242,2.35612535476685,0.0100513617432807
243,2.3539891242981,0.00614124083403578
244,2.41199493408203,0.00644593091367686
245,2.51525211334229,0.00795473324566412
246,2.5805401802063,0.0112797856741016
247,2.67860651016235,0.0214225573274556
248,2.7737603187561,0.0396666536625005
249,2.84237670898437,0.0473305500627056
250,3.03944492340088,0.0713993421422747
251,3.20236587524414,0.114478786052503
252,3.49732542037964,0.199897358305261
253,3.63612365722656,0.163561829055034
254,3.47673892974854,0.267870221499901
255,3.69185972213745,0.588354390373587
256,3.32945728302002,1.23388043889998
257,3.94869327545166,0.583562896607448
258,3.15715360641479,0.10103293050117
259,3.3002758026123,0.0851851388068081
260,3.4503026008606,0.107574908749353
261,3.36882257461548,0.207104939715806
262,3.42618417739868,0.670180912929254
263,3.74277782440186,1.41019412172137
264,3.84545278549194,0.670590614653186
265,3.10390090942383,0.222008549431115
266,3.4868369102478,0.380814300217311
267,3.28844928741455,0.285637436477062
268,3.75249099731445,0.454436410482121
269,3.32005548477173,0.305768564903594
270,3.53122711181641,0.481087634948145
271,3.50003051757812,0.264949163203116
272,3.02458906173706,0.0836373188883996
273,3.14920902252197,0.0757087911684017
274,2.86995029449463,0.0806699145690458
275,3.11494970321655,0.108063601663069
276,2.91295909881592,0.0565236956439553
277,2.63308763504028,0.0325898015528276
278,2.38016796112061,0.0158625662463333
279,2.09567499160767,0.00456786065480168
280,1.82808876037598,0.00176395825398174
281,1.59038352966309,0.0012084585241778
282,1.39728498458862,0.00105188850469244
283,1.24653339385986,0.000767029290629029
284,1.11638641357422,0.000635361849932875
285,1.01516675949097,0.00053473837924485
286,0.929764270782471,0.000469176748847921
287,0.861804962158203,0.000355504407509058
288,0.805407524108887,0.000234437123400152
289,0.758415699005127,0.000210146198488781
290,0.720662117004395,0.000261473776355631
291,0.688646793365479,0.000266319422541917
292,0.66271448135376,0.00029259623248991
293,0.639366626739502,0.000242312110628125
294,0.621546745300293,0.000161855137051214
295,0.606381416320801,0.000169571767966407
296,0.593825817108154,0.000259679755021935
297,0.583974361419678,0.000242015410241118
298,0.57533073425293,0.000215762359564751
299,0.568963527679443,0.000206037799201877
300,0.563833236694336,0.000312729570509484
301,0.560188293457031,0.000211229711640139
302,0.556757926940918,0.000248980237916271
303,0.555332183837891,0.000269908365213106
304,0.554609775543213,0.000232610530281574
305,0.55492115020752,0.000283348820879331
306,0.555680274963379,0.000372182322335202
307,0.556283473968506,0.000254536371812549
308,0.559524059295654,0.000266906165160099
309,0.560711860656738,0.000259308237993852
310,0.563344478607178,0.000234847988505148
311,0.565964221954346,0.000166903904150272
312,0.568706035614014,0.000166612116268636
313,0.572338104248047,0.000279190497547368
314,0.575556755065918,0.000238094109044106
315,0.578189849853516,0.000279646191530018
316,0.582110404968262,0.000252123786454816
317,0.584813117980957,0.000311686679318474
318,0.587732791900635,0.000286692963270156
319,0.589795112609863,0.000345730287486945
320,0.592559814453125,0.000326039477277246
321,0.594385147094727,0.000300563287408328
322,0.595964908599854,0.000184352917025608
323,0.597187042236328,0.000165189495844297
324,0.598369598388672,0.000163540547556368
325,0.599252223968506,0.00017832944720991
326,0.598731517791748,0.000311196072990617
327,0.598138332366943,0.000227254806649879
328,0.596715927124023,0.000283990056471025
329,0.595614910125732,0.000265936661650595
330,0.592967510223389,0.000183547004178964
331,0.590370655059814,0.000241684479697527
332,0.587535381317139,0.000297466903242851
333,0.583341598510742,0.000279183982244576
334,0.579923629760742,0.000358956729132599
335,0.574314117431641,0.000277124038325271
336,0.570282936096191,0.000300920139717035
337,0.563803672790527,0.000231336307659915
338,0.557302951812744,0.000199484413379524
339,0.551162719726563,0.00022524890994876
340,0.543612957000732,0.000241160834713209
341,0.536352634429932,0.000264351914888893
342,0.528762817382813,0.000283842700561161
343,0.520294666290283,0.000327297913151952
344,0.511560916900635,0.000225111585204725
345,0.502389430999756,0.00014292711602954
346,0.493479728698731,0.0001715686335636
347,0.483393669128418,0.000217918233193947
348,0.474002361297607,0.000189610984811228
349,0.463837146759033,0.000220775089304511
350,0.453811168670654,0.000163701745218978
351,0.443351268768311,0.000200584711822788
352,0.43235445022583,0.000173306529107674
353,0.422164916992188,0.00016324274796127
354,0.411201000213623,0.000263442065173519
355,0.40024995803833,0.000260344354951141
356,0.388743877410889,0.000232614440195097
357,0.378499507904053,0.000229595977566592
358,0.366870880126953,0.00023494091480753
359,0.356192111968994,0.000191700398851533
360,0.344934463500977,0.000141011640175063
361,0.333773612976074,0.000210024981933072
362,0.323579788208008,0.000273702867350038
363,0.312493324279785,0.00026052594996259
364,0.301834106445312,0.000221552316744116
365,0.292579650878906,0.000221552316744116
366,0.284436702728271,0.000146828683883039
367,0.276862621307373,0.000157526675338409
368,0.268064022064209,0.000162309653229728
369,0.260065078735352,0.000162625940221279
370,0.251224994659424,0.00016773556152273
371,0.24294376373291,0.000207962237097763
372,0.234122753143311,0.000202259911217587
373,0.226117134094238,0.000162298445934481
374,0.217930316925049,0.000221314092794109
375,0.210416793823242,0.000175315327201344
376,0.202592849731445,0.000160676434502781
377,0.194935321807861,0.000156751104822574
378,0.187405586242676,0.000174154613245597
379,0.180361747741699,0.000107853777104354
380,0.173262596130371,0.000129923907210742
381,0.166598320007324,0.000199953462310453
382,0.160275936126709,0.000171175906035337
383,0.153478145599365,0.000227542774841411
384,0.147382736206055,0.000225111585204725
385,0.141534805297852,0.000192401282094381
386,0.135795593261719,0.000193889282847408
387,0.129542350769043,0.000140125233689638
388,0.12405252456665,0.000172163969316404
389,0.119229316711426,0.000171066950414876
390,0.11417293548584,0.000138945471443059
391,0.109284400939941,0.00018614491437626
392,0.104327201843262,0.000204695923043618
393,0.0998172760009766,0.000199078228655112
394,0.0952358245849609,0.000131264531100706
395,0.0909638404846191,0.000157901512831268
396,0.0871038436889648,0.000174305995328406
397,0.0832514762878418,0.000164314514626162
398,0.0790448188781738,0.000190214400679682
399,0.0754513740539551,0.000232802038819785
400,0.072105884552002,0.000226336472032375
401,0.0689773559570313,0.000169917360230736
402,0.0659141540527344,0.00024576688575588
403,0.0622649192810059,0.000194941854456348
404,0.0594453811645508,0.000156698876698161
405,0.0564990043640137,0.000122356823617991
406,0.053703784942627,0.000085320546136265
407,0.0512418746948242,0.000159594483373176
408,0.0482149124145508,0.000207037400714359
409,0.0461893081665039,0.00022767863321412
410,0.0438623428344727,0.000212936490208202
411,0.0416698455810547,0.000206037799201877
412,0.0395212173461914,0.000198098150905298
413,0.0372591018676758,0.000197785707554053
414,0.035315990447998,0.000153902470799765
415,0.033482551574707,0.000144814118211866
416,0.0320367813110352,0.000148812924483961
417,0.0300703048706055,0.000156082430406787
418,0.0281276702880859,0.000186788746313618
419,0.0267143249511719,0.000118633788452469
420,0.02545166015625,0.000105913680191311
421,0.0238304138183594,0.000112711232778123
422,0.0225949287414551,0.000108852638804476
423,0.0213961601257324,0.000128385250244063
424,0.0202927589416504,0.000161914127791878
425,0.0189719200134277,0.000203836591307337
426,0.0176906585693359,0.000243114011709353
427,0.0169081687927246,0.000209304899118483
428,0.0158100128173828,0.000160696244721022
429,0.0149636268615723,0.00018607649850665
430,0.013481616973877,0.000142046259925534
431,0.0132131576538086,0.000174285122858528
432,0.0123615264892578,0.000162617551170683
433,0.0113887786865234,0.000165985912055232
434,0.01055908203125,0.000132055486110173
435,0.0101265907287598,0.000110919743861196
436,0.00934123992919922,0.000114136529476082
437,0.00874805450439453,0.00015925790011281
438,0.00806140899658203,0.000118445812598835
439,0.00753688812255859,0.000117547855176882
440,0.00688648223876953,0.000190438994767084
441,0.00637340545654297,0.000193809522942558
442,0.00583982467651367,0.000121272354949589
443,0.00539302825927734,0.000125178609262309
444,0.0051422119140625,0.000130594198369016
445,0.00458145141601563,0.000102580961681556
446,0.00406169891357422,0.000115563922574624
447,0.00376129150390625,0.0000991614943827392
448,0.00364494323730469,0.0000916793067514939
449,0.00313377380371094,0.000101296195512972
450,0.00281953811645508,0.000138016147728924
451,0.00272464752197266,0.000127774564728376
452,0.00245952606201172,0.00015384336392655
453,0.00202083587646484,0.000164250848821826
454,0.00185155868530273,0.000132505830881989
455,0.0015263557434082,0.000162211563142066
456,0.00136947631835937,0.000136161850368013
457,0.00116872787475586,0.0000870825288067743
458,0.000894546508789063,0.000105709539083912
459,0.000752449035644531,0.000148396749337807
460,0.000446319580078125,0.000130768189490926
461,0.000529289245605469,0.0000977364970352481
462,0.000190258026123047,0.000133074307581218
463,-0.0000600814819335938,0.0000977458021713701
464,-0.0000510215759277344,0.0000726484532140107
465,-0.000287532806396484,0.000110884890193697
466,-0.000150680541992187,0.000109394384160834
467,-0.000479221343994141,0.000142876200191961
468,-0.000507831573486328,0.000111834325640344
469,-0.000610828399658203,0.000117949504897942
470,-0.000787258148193359,0.0000774695305479781
471,-0.000692844390869141,0.00009283763537139
472,-0.000909328460693359,0.000103060826091465
473,-0.000965595245361328,0.000115801747095158
474,-0.000997066497802734,0.000123186521580412
475,-0.00100851058959961,0.000112912783729093
476,-0.00115633010864258,0.0001013119067872
477,-0.001129150390625,0.000129909906035292
478,-0.00140523910522461,0.000106598437155293
479,-0.0013127326965332,0.000103063032276399
480,-0.00131940841674805,0.0000925997626795834
481,-0.00145435333251953,0.000138689954386739
482,-0.00140619277954102,0.000143884772983305
483,-0.00147294998168945,0.000097554869480472
484,-0.00145626068115234,0.000064558186706834
485,-0.00161170959472656,0.0000707328096038386
486,-0.00155115127563477,0.0000786694608592771
487,-0.00142717361450195,0.0000971905961120397
488,-0.00141382217407227,0.0000959734733778315
489,-0.00162363052368164,0.000108785775997919
490,-0.00156736373901367,0.000101089477539062
491,-0.00176525115966797,0.0000928915011347683
492,-0.00174140930175781,0.000102718294550035
493,-0.00161027908325195,0.0000952529219755842
494,-0.00175094604492187,0.00010622878852857
495,-0.00167942047119141,0.0000917834117647178
496,-0.00153541564941406,0.000113959092865009
497,-0.0016937255859375,0.000107971769862892
498,-0.00152206420898437,0.000111433079304602
499,-0.00176572799682617,0.0000822706482932652
500,-0.00174760818481445,0.0000825947479221487
501,-0.00173139572143555,0.0000878830416374838
502,-0.0016179084777832,0.0000952624697049697
503,-0.0016636848449707,0.0000886737641254608
504,-0.00158357620239258,0.0000810286508100608
505,-0.00155782699584961,0.0000846718333355346
506,-0.001678466796875,0.0000726594066182515
507,-0.001495361328125,0.0000799154039960351
508,-0.0015864372253418,0.0000666651772682966
509,-0.001617431640625,0.0000840938526506867
510,-0.00148248672485352,0.000100792141652034
511,-0.00158882141113281,0.000104971343991253
512,-0.00163173675537109,0.000111134774261148
513,-0.0015416145324707,0.0000950043442185384
514,-0.0015411376953125,0.0000894142783672436
515,-0.00145626068115234,0.0000971508171229072
516,-0.00144720077514648,0.000136698493563852
517,-0.00154829025268555,0.000105832071000872
518,-0.00151634216308594,0.0000709366394131705
519,-0.00156164169311523,0.000128083821892463
520,-0.00139427185058594,0.000133779806927233
521,-0.00140762329101562,0.00012784928150077
522,-0.00139331817626953,0.000132179397869176
523,-0.0013880729675293,0.000125458022098558
524,-0.00143671035766602,0.0000980987433123348
525,-0.00137424468994141,0.0000908646955791667
526,-0.00143098831176758,0.000108540958257312
527,-0.00133609771728516,0.0000862073580494266
528,-0.00131607055664062,0.0000974102572812379
529,-0.00132656097412109,0.000129338068834004
530,-0.00121879577636719,0.000100496188563734
531,-0.00117111206054687,0.00010481093337703
532,-0.0012969970703125,0.00011348924715213
533,-0.00153207778930664,0.000108595409896269
534,-0.00116920471191406,0.000105172594162939
535,-0.00121259689331055,0.00010278689217573
536,-0.00111532211303711,0.0000752753569617626
537,-0.00114631652832031,0.0000780004154316501
538,-0.0012507438659668,0.0000962573491963689
539,-0.00123262405395508,0.0000860053510516597
540,-0.00106668472290039,0.0000679321434727025
541,-0.00105714797973633,0.0000743835399684339
542,-0.00112199783325195,0.0000856131870776228
543,-0.00111484527587891,0.0000706781412424507
544,-0.00109720230102539,0.0000692629567530636
545,-0.000948905944824219,0.0000980871536069068
546,-0.00107002258300781,0.000091236781278039
547,-0.00108623504638672,0.0000760984897344466
548,-0.00114583969116211,0.0000827130371852673
549,-0.00104522705078125,0.000104112236820317
550,-0.00106334686279297,0.000117600069877357
551,-0.00115537643432617,0.0000750075611199787
552,-0.00101041793823242,0.0000740803012311495
553,-0.00105714797973633,0.0000754443186553529
554,-0.000961780548095703,0.0000831147821227745
555,-0.0010523796081543,0.000101269256229082
556,-0.00103044509887695,0.000100394323968278
557,-0.000974178314208984,0.0000865692574913804
558,-0.000963211059570313,0.0000679271226813672
559,-0.000864982604980469,0.0000777463940513184
560,-0.000997543334960938,0.0000641873118227533
561,-0.000916957855224609,0.0000642368855249363
562,-0.00099945068359375,0.0000571329719572073
563,-0.00100612640380859,0.0000681543602099659
564,-0.00104093551635742,0.0000868079394499121
565,-0.000921249389648438,0.0000767767056851607
566,-0.000945091247558594,0.0000904584094037201
567,-0.000958919525146484,0.0000715668876858163
568,-0.000913619995117188,0.0000812850025201752
569,-0.000936508178710938,0.000077393182724327
570,-0.00101900100708008,0.0000910671589439159
571,-0.000792026519775391,0.0000851337963351128
572,-0.000754356384277344,0.0000832377957307026
573,-0.000832080841064453,0.0000683592259882257
574,-0.000782489776611328,0.0000740066016925286
575,-0.000820636749267578,0.0000686380547159065
576,-0.00075531005859375,0.0000787084694370708
577,-0.000748157501220703,0.0000841776289848608
578,-0.000837802886962891,0.0000567396146497376
579,-0.000714302062988281,0.0000582424919104392
580,-0.000796318054199219,0.000066942570680477
581,-0.000845432281494141,0.0000727000762425868
582,-0.000798225402832031,0.0000603005789166917
583,-0.000556468963623047,0.000091552734375
584,-0.000703334808349609,0.000098826154711132
585,-0.000781536102294922,0.0000772799906780011
586,-0.000761985778808594,0.0000651995263486374
587,-0.000744819641113281,0.0000632973264442124
588,-0.000728130340576172,0.0000835268451295758
589,-0.000757217407226563,0.0000722656113070398
590,-0.000825881958007813,0.0000662082856511938
591,-0.000792980194091797,0.00007071030422079
592,-0.000812530517578125,0.0000528698238985281
593,-0.000782012939453125,0.0000562688051281259
594,-0.000741958618164063,0.0000610891490778008
595,-0.000698089599609375,0.0000731086382628213
596,-0.000742435455322266,0.0000694825535705629
597,-0.000743389129638672,0.0000732438017746732
598,-0.000725746154785156,0.0000983325628766935
599,-0.000772476196289063,0.0000809500421635094
600,-0.000713348388671875,0.0000825300298168943
601,-0.000670433044433594,0.000089185121597468
602,-0.00074005126953125,0.0000812626215175082
603,-0.000644683837890625,0.0000709077857860206
604,-0.000719070434570313,0.0000719329043766594
605,-0.000658988952636719,0.0000730806421871488
606,-0.000679969787597656,0.0000600322642899235
607,-0.000751972198486328,0.0000593264764588587
608,-0.000713825225830078,0.0000762656278510399
609,-0.000583171844482422,0.0000698757633694829
610,-0.000779151916503906,0.0000651681326257603
611,-0.000682830810546875,0.0000518822055885706
612,-0.000699043273925781,0.0000733678703005824
613,-0.000673294067382813,0.0000691397436538386
614,-0.000617504119873047,0.0000655542711490036
615,-0.000715732574462891,0.0000776527518685237
616,-0.000813961029052734,0.0000708917509187195
617,-0.000673294067382813,0.0000612322783183747
618,-0.00063323974609375,0.0000660139671853236
619,-0.000744819641113281,0.0000497032693460975
620,-0.000676631927490234,0.0000667520929833741
621,-0.000614643096923828,0.0000687274379971908
622,-0.00072479248046875,0.0000691906983376903
623,-0.000604629516601563,0.0000719960948877046
624,-0.000711917877197266,0.000091642097728998
625,-0.000718116760253906,0.0000882290493685299
626,-0.000703811645507813,0.0000732003281105707
627,-0.000616073608398438,0.0000949851959075068
628,-0.000721931457519531,0.0000951263240921763
629,-0.000734806060791016,0.0000863457168467758
630,-0.000720024108886719,0.0000598549356120386
631,-0.000736236572265625,0.0000702133607724353
632,-0.000660419464111328,0.0000969094540821857
633,-0.000766277313232422,0.0000869361890798822
634,-0.000691413879394531,0.0000573633317635444
635,-0.000618457794189453,0.0000531614625355779
636,-0.000646591186523438,0.0000738343500169598
637,-0.000530242919921875,0.000066177370472935
638,-0.000630378723144531,0.0000563848598196802
639,-0.000647544860839844,0.0000601656263982515
640,-0.000645637512207031,0.0000764219878532014
641,-0.000617504119873047,0.0000858876251412552
642,-0.000713348388671875,0.0000731179679059581
643,-0.000662326812744141,0.0000806334313377474
644,-0.00060272216796875,0.0000886660713132436
645,-0.000638008117675781,0.0000845777937943496
646,-0.000704288482666016,0.0000910272018712113
647,-0.000569343566894531,0.000082132345656567
648,-0.000713825225830078,0.000105116369476116
649,-0.000499725341796875,0.0000764636298533314
650,-0.000790596008300781,0.000069166047532916
651,-0.000594139099121094,0.0000829367736863972
652,-0.000725746154785156,0.0000796646347444805
653,-0.000689506530761719,0.0000771960922566141
654,-0.000661373138427734,0.0000750424134719995
655,-0.000652313232421875,0.0000894320770607008
656,-0.000782489776611328,0.0000484300851644374
657,-0.00000238418579101562,0.0000463489642342486
658,-0.000497817993164063,0.0000716018270290221
659,-0.000596523284912109,0.0000623217227290877
660,-0.000546932220458984,0.0000528472407554947
661,-0.000710487365722656,0.0000736014797231347
662,-0.000619888305664063,0.000089678352462716
663,-0.00060272216796875,0.0000603542870676003
664,-0.000535011291503906,0.0000555059753743306
665,-0.000690937042236328,0.0000564080421052937
666,-0.000593185424804688,0.0000677662609484023
667,-0.000737667083740234,0.0000653527896843407
668,-0.000477313995361328,0.0000823700824039047
669,-0.000697135925292969,0.0000792080919256682
670,-0.000551223754882813,0.0000781765759178453
671,-0.000591278076171875,0.0000452442836169987
672,-0.000576496124267578,0.0000602949226441318
673,-0.000536441802978516,0.00006405611092666
674,-0.000566959381103516,0.000060381593931696
675,-0.000576972961425781,0.0000602647468911531
676,-0.000575542449951172,0.0000618786933803876
677,-0.000492095947265625,0.0000705106572600321
678,-0.000552177429199219,0.000075021200925114
679,-0.000611305236816406,0.0000828750662993021
680,-0.000481128692626953,0.0000711270994671645
681,-0.000539302825927734,0.0000791362947245633
682,-0.000547409057617188,0.0000668729051904992
683,-0.000599384307861328,0.0000767070790287309
684,-0.000500202178955078,0.0000759489484609192
685,-0.000540256500244141,0.0000511928606659043
686,-0.000450611114501953,0.0000636305197104159
687,-0.000520706176757813,0.00006951690512293
688,-0.000512599945068359,0.0000800532762750376
689,-0.000555515289306641,0.000089011589663902
690,-0.000525474548339844,0.0000672813681816839
691,-0.000570297241210938,0.0000671849849661295
692,-0.00049591064453125,0.0000716192903087141
693,-0.000475883483886719,0.0000627290110492791
694,-0.000565052032470703,0.000086674253597273
695,-0.000555992126464844,0.0000682460428726763
696,-0.000536918640136719,0.0000510316018922497
697,-0.000530719757080078,0.0000588869758451284
698,-0.000504016876220703,0.0000536510675035791
699,-0.000442028045654297,0.0000607317221573898
700,-0.00055694580078125,0.0000844392308974263
701,-0.000586986541748047,0.0000575088149430984
702,-0.000459194183349609,0.0000652692361155269
703,-0.000519275665283203,0.0000634498092778683
704,-0.00058746337890625,0.00008164504910262
705,-0.000552654266357422,0.0000668729051904992
706,-0.000555515289306641,0.0000479286578468767
707,-0.000589370727539063,0.0000558622413497761
708,-0.000605106353759766,0.000062235926611367
709,-0.000562667846679688,0.0000636537422026262
710,-0.000470638275146484,0.0000805247941710508
711,-0.000527858734130859,0.0000605245180490181
712,-0.000505924224853516,0.0000617830823392697
713,-0.00052642822265625,0.0000706105513016234
714,-0.000581741333007813,0.0000616873231078958
715,-0.000527381896972656,0.0000555888652169771
716,-0.000496864318847656,0.0000710983231339104
717,-0.000534534454345703,0.0000698741363652712
718,-0.000543594360351563,0.0000744675538095954
719,-0.000522613525390625,0.0000918378958648948
720,-0.000592231750488281,0.0000875018922473988
721,-0.000481128692626953,0.0000795718212690126
722,-0.000509738922119141,0.0000703104434027176
723,-0.000451087951660156,0.0000650389103379345
724,-0.000477790832519531,0.0000605451764841411
725,-0.000552654266357422,0.0000697813344189709
726,-0.000523090362548828,0.000050481720992531
727,-0.000501155853271484,0.0000469387996762265
728,-0.000471591949462891,0.0000675713754231446
729,-0.000427722930908203,0.0000609326246465105
730,-0.000420570373535156,0.0000813730678803362
731,-0.000455379486083984,0.0000761806123105679
732,-0.000465869903564453,0.0000633727167585059
733,-0.000477313995361328,0.000052004770767301
734,-0.000477313995361328,0.0000610686746591073
735,-0.000484466552734375,0.0000581985563071809
736,-0.000433444976806641,0.0000557165396523012
737,-0.000430107116699219,0.0000637215748084213
738,-0.000484943389892578,0.0000620676419967335
739,-0.000515937805175781,0.0000683359389066478
740,-0.000459671020507813,0.0000633745106728979
741,-0.000461578369140625,0.0000734839942987677
742,-0.000385284423828125,0.0000681426826585341
743,-0.000441551208496094,0.00007291399919915
744,-0.000424385070800781,0.0000507445255608386
745,-0.000468730926513672,0.0000595979686812936
746,-0.000449180603027344,0.000058726517938006
747,-0.000446319580078125,0.0000737280303468182
748,-0.000479221343994141,0.0000695381618656347
749,-0.000490188598632813,0.0000595187521996686
750,-0.000517368316650391,0.0000549574218622942
751,-0.000461101531982422,0.000052799892373086
752,-0.000512599945068359,0.0000516031665690528
753,-0.000436782836914063,0.0000470561211565925
754,-0.000433444976806641,0.0000554075749860479
755,-0.000446796417236328,0.0000629099848574525
756,-0.000453948974609375,0.0000688266166114847
757,-0.000429630279541016,0.0000517516620317245
758,-0.000352859497070312,0.0000563394755849531
759,-0.000423431396484375,0.0000692744454608253
760,-0.000421524047851563,0.000058616069551128
761,-0.000353336334228516,0.0000577839287681606
762,-0.000410556793212891,0.000075255720765534
763,-0.000433921813964844,0.0000851124274099933
764,-0.000449657440185547,0.0000647428274544446
765,-0.000363826751708984,0.0000570054784159792
766,-0.000378131866455078,0.0000662975151871706
767,-0.000322818756103516,0.0000778559876543938
768,-0.000357627868652344,0.0000623636650499029
769,-0.000396728515625,0.000059218106997446
770,-0.000403404235839844,0.0000717350752605114
771,-0.000368595123291016,0.0000674754064609861
772,-0.000333309173583984,0.0000665063914853091
773,-0.000379562377929687,0.0000574346348759214
774,-0.000375270843505859,0.000055756314238816
775,-0.000411510467529297,0.0000659726223166425
776,-0.000362396240234375,0.0000758965394051589
777,-0.000409603118896484,0.0000513525061490733
778,-0.000370025634765625,0.0000518548077403789
779,-0.000403404235839844,0.0000582805426416804
780,-0.000382900238037109,0.0000558164321765837
781,-0.000440120697021484,0.0000526662270030044
782,-0.000399112701416016,0.000065010936611764
783,-0.000324726104736328,0.0000648007487463348
784,-0.000449180603027344,0.0000564181183887748
785,-0.000339508056640625,0.000056797691037476
786,-0.000416755676269531,0.0000663849122725995
787,-0.000396728515625,0.0000731630444096237
788,-0.000377655029296875,0.0000775736533513833
789,-0.000459194183349609,0.0000733415232999734
790,-0.000399589538574219,0.0000661550338593469
791,-0.000337600708007812,0.000062122567504072
792,-0.000434398651123047,0.000064100465590623
793,-0.000341415405273437,0.0000833360758779659
794,-0.000444412231445313,0.0000715573558132327
795,-0.000443458557128906,0.0000656651687053757
796,-0.000357151031494141,0.0000635965638913315
797,-0.000327110290527344,0.0000565197881554743
798,-0.000418186187744141,0.0000679639332045259
799,-0.000357151031494141,0.0000827597560736889
800,-0.000436782836914063,0.000068899256860316
801,-0.000406742095947266,0.0000595158869789604
802,-0.000402927398681641,0.0000643818460696035
803,-0.000342369079589844,0.0000592996423055595
804,-0.000339984893798828,0.0000830778425218139
805,-0.000362873077392578,0.0000756850381874869
806,-0.000310420989990234,0.0000805812473427151
807,-0.000337600708007812,0.0000778457654462529
808,-0.000249385833740234,0.000075872568922317
809,-0.000384330749511719,0.0000770870352764255
810,-0.000355720520019531,0.000079314232508976
811,-0.000309944152832031,0.000046331791135888
812,-0.000391006469726562,0.000050685120814647
813,-0.000341415405273437,0.0000670918523574187
814,-0.000382423400878906,0.0000732748386004124
815,-0.000299930572509766,0.0000715144466646049
816,-0.000312328338623047,0.0000659312515209875
817,-0.000314235687255859,0.0000651855754495051
818,-0.000400066375732422,0.0000689883017212174
819,-0.000295639038085937,0.0000690640641972953
820,-0.000308513641357422,0.0000710135251037114
821,-0.000307083129882812,0.0000695561432662931
822,-0.000357627868652344,0.0000653562687649514
823,-0.000339984893798828,0.0000642705030459323
824,-0.000403404235839844,0.0000760999836631988
825,-0.000213623046875,0.0000686893815601983
826,-0.000405311584472656,0.0000824142368334515
827,-0.000374317169189453,0.0000642864209989651
828,-0.000329017639160156,0.0000570951520256284
829,-0.000346183776855469,0.0000551278200727567
830,-0.000397682189941406,0.0000681310031055876
831,-0.000323772430419922,0.000062692753598097
832,-0.000348567962646484,0.0000623381383023288
833,-0.000367164611816406,0.0000828531148195807
834,-0.000313758850097656,0.0000812080419820322
835,-0.000393390655517578,0.0000591297303164033
836,-0.000370025634765625,0.0000718538380901777
837,-0.000307559967041016,0.0000663112321510969
838,-0.000420570373535156,0.0000706089412287406
839,-0.000332355499267578,0.0000603674712338226
840,-0.000327110290527344,0.0000751831734600153
841,-0.000350475311279297,0.0000940324810405235
842,-0.000302314758300781,0.0000594566415041554
843,-0.000354290008544922,0.0000624784063497894
844,-0.000222206115722656,0.0000719076126238004
845,-0.000286579132080078,0.000057900873547579
846,-0.000321388244628906,0.0000772741060413523
847,-0.000312328338623047,0.0000836913739403815
848,-0.000291824340820312,0.0000707553078285232
849,-0.000245571136474609,0.0000624711274534695
850,-0.000297069549560547,0.0000558347603559123
851,-0.00034332275390625,0.0000726328026282469
852,-0.000325679779052734,0.000067623511891311
853,-0.000361919403076172,0.000077374083997294
854,-0.000323295593261719,0.0000599915345840828
855,-0.000401973724365234,0.0000734592365825716
856,-0.000275135040283203,0.0000648200443421283
857,-0.000381946563720703,0.000071874403691928
858,-0.000312328338623047,0.00007694532562064
859,-0.000276088714599609,0.0000657516772780559
860,-0.000274658203125,0.0000574227571723768
861,-0.000425338745117188,0.0000741769207506673
862,-0.000330924987792969,0.0000622523648085311
863,-0.000288486480712891,0.0000613398694262924
864,-0.000271797180175781,0.0000709414472100795
865,-0.000414848327636719,0.0000702052644933622
866,-0.000329017639160156,0.0000738574427363863
867,-0.000253200531005859,0.0000762432645312468
868,-0.000356674194335937,0.0000687935729605276
869,-0.000323772430419922,0.0000525873780253238
870,-0.000334739685058594,0.000066794657417694
871,-0.000376224517822266,0.0000732810443881517
872,-0.000397682189941406,0.0000639299758805844
873,-0.00025177001953125,0.0000783349267751107
874,-0.000416755676269531,0.0000784335525320133
875,-0.00029754638671875,0.0000775677909932906
876,-0.000349521636962891,0.0000669833168596577
877,-0.00031280517578125,0.0000603363896626372
878,-0.000371456146240234,0.0000890881895372302
879,-0.000319004058837891,0.0000864983130710362
880,-0.000409603118896484,0.0000707906477351976
881,-0.000287055969238281,0.000057578950681979
882,-0.000410556793212891,0.0000642846525321615
883,-0.000311851501464844,0.0000632326346333065
884,-0.000360488891601562,0.0000588869758451284
885,-0.000288009643554687,0.0000765037631726978
886,-0.000279903411865234,0.0000942208988707153
887,-0.000276088714599609,0.0000761298560818815
888,-0.000303268432617187,0.0000693121806642963
889,-0.000280380249023437,0.0000876939704360624
890,-0.000384807586669922,0.0000761164149442747
891,-0.000340938568115234,0.0000644947596209063
892,-0.000260829925537109,0.000063594776240732
893,-0.000243186950683594,0.0000629190198838325
894,-0.000192165374755859,0.0000714205925128983
895,-0.000365734100341797,0.0000706298693133756
896,-0.000277519226074219,0.000068526991170845
897,-0.000319480895996094,0.0000578055666377706
898,-0.000216007232666016,0.0000690031313597921
899,-0.000305652618408203,0.0000625129695330723
900,-0.000244140625,0.0000542264700830655
901,-0.000259876251220703,0.0000865272233750439
902,-0.000244140625,0.0000750954186241947
903,-0.000222206115722656,0.0000685170363988141
904,-0.000307083129882812,0.0000913090243686375
905,-0.000223159790039062,0.0000617720407732197
906,-0.000127315521240234,0.0000886481188219411
907,-0.000372886657714844,0.0000924842847343456
908,-0.000231266021728516,0.0000660329082653101
909,-0.00030517578125,0.0000731972218608351
910,-0.000305652618408203,0.0000851645047714343
911,-0.000296115875244141,0.000080910709200708
912,-0.000260353088378906,0.000111909526151321
913,-0.000298500061035156,0.000076583966716658
914,-0.000298500061035156,0.0000796375158398231
915,-0.000247478485107422,0.0000930993260335219
916,-0.000209808349609375,0.0000951812834771634
917,-0.000323295593261719,0.000116007728631044
918,-0.0003204345703125,0.0000843328002273662
919,-0.000270366668701172,0.0000838664252019898
920,-0.000197887420654297,0.000100893604602044
921,-0.000284194946289062,0.0000814317252096898
922,-0.000177860260009766,0.0000858717396370858
923,-0.000222206115722656,0.000110082275623383
924,-0.000204086303710937,0.000110288631061915
925,-0.000351428985595703,0.000115571792364042
926,-0.000208854675292969,0.000125156810636238
927,-0.000338554382324219,0.0000854190918060671
928,-0.000135421752929687,0.0000802348482445392
929,-0.000276088714599609,0.0000788844899174126
930,-0.000353813171386719,0.000088637858622969
931,-0.000171661376953125,0.0000712516626142611
932,-0.000275135040283203,0.0000922676820774506
933,-0.000323772430419922,0.0000741094537176686
934,-0.000298023223876953,0.0000765958415807394
935,-0.000314712524414062,0.0000952003923477589
936,-0.000308513641357422,0.0000943703985355605
937,-0.000481128692626953,0.000115217119678795
938,-0.000248908996582031,0.000090563917873446
939,-0.000300884246826172,0.000122215512465549
940,-0.000292778015136719,0.000109423478965168
941,-0.000504016876220703,0.0000843611050269801
942,-0.000108242034912109,0.0000983649296487894
943,-0.000483989715576172,0.0000952338236451716
944,-0.000224113464355469,0.0000863062083949949
945,-0.000309944152832031,0.0000972864667566871
946,-0.000243186950683594,0.0000940058789107184
947,-0.000296592712402344,0.000109223816098667
948,-0.0003204345703125,0.0000999539859083949
949,-0.0000796318054199219,0.000115715322005566
950,-0.000361442565917969,0.000103091708384174
951,-0.000275135040283203,0.000114938528312323
952,-0.000293731689453125,0.0000810104091726366
953,-0.000294208526611328,0.0000702619188552622
954,-0.000255584716796875,0.0000956507289699601
955,-0.000406742095947266,0.0000948606376709611
956,-0.000255107879638672,0.000142465026461812
957,-0.000433444976806641,0.000101361269223397
958,-0.000144004821777344,0.000120215934098487
959,-0.000335216522216797,0.000138886547692359
960,-0.000311374664306641,0.000116477175731328
961,-0.000335216522216797,0.0000977946396102221
962,-0.000239372253417969,0.0000995847891403703
963,-0.000178337097167969,0.00012696768718428
964,-0.00012969970703125,0.000120815894934209
965,-0.000436305999755859,0.000100611510428642
966,-0.000377655029296875,0.0000991293876976228
967,-0.000421047210693359,0.000112872502330883
968,-0.0000486373901367188,0.00012163741122057
969,-0.000408649444580078,0.000136008134827883
970,-0.000126361846923828,0.000138997827140435
971,-0.000382900238037109,0.000139331132233048
972,-0.000257492065429687,0.000170083208986929
973,-0.000482559204101563,0.000176998459025129
974,-0.000132560729980469,0.000142362846045968
975,-0.000298976898193359,0.00013316654119999
976,-0.000290870666503906,0.000164081876396762
977,-0.000299930572509766,0.000161108874038327
978,-0.000331878662109375,0.000145118399314326
979,-0.000375747680664062,0.000156280423346657
980,-0.000484943389892578,0.000161633026663573
981,-0.000345230102539062,0.00016781687471884
982,-0.000364780426025391,0.000201724098577052
983,-0.000331401824951172,0.000187764886545716
984,-0.000294685363769531,0.000171165279271853
985,-0.0000319480895996094,0.000153239171575271
986,-0.000524997711181641,0.000158691520874275
987,-0.000235557556152344,0.000181067570286649
988,-0.00014495849609375,0.000112672897338701
989,-0.000416278839111328,0.000136738407475909
990,-0.00006103515625,0.000178553709779294
991,-0.000502586364746094,0.000257343673332564
992,0.000168323516845703,0.000206253982217864
993,-0.000480175018310547,0.000163765624493909
994,-0.000360488891601562,0.000192283068980275
995,-0.000458240509033203,0.000174191165793643
996,0.0000362396240234375,0.000191856898677514
997,-0.000498771667480469,0.000223867809312763
998,-0.000011444091796875,0.000211320112287143
999,-0.000365257263183594,0.00018249349848562
1000,-0.0002288818359375,0.000237715638548572
1001,-0.000377655029296875,0.000280717400494543
1002,-0.0000982284545898438,0.000195282136523899
1003,-0.0000514984130859375,0.000163934922889201
1004,-0.000072479248046875,0.000201435341052402
1005,-0.000424861907958984,0.000165947552181352
1006,-0.000407218933105469,0.000256572068850693
1007,-0.000201702117919922,0.000307988083237176
1008,-0.0000095367431640625,0.000311762537501011
1009,-0.000532150268554688,0.00024802133708436
1010,0.0000348091125488281,0.000237750069853171
1011,-0.0000786781311035156,0.000235366357589586
1012,-0.000280380249023437,0.000320894048144759
1013,-0.000388145446777344,0.000299095133471585
1014,-0.0000119209289550781,0.000217069347235974
1015,0.000124454498291016,0.00018131352815023
1016,-0.0000615119934082031,0.00022011084199431
1017,-0.000327587127685547,0.000341047589670908
1018,0.0000729560852050781,0.000374511194663943
1019,-0.000130176544189453,0.000370408872370327
1020,0.0000391006469726562,0.000245159229628342
1021,-0.000464439392089844,0.000337600708007812
1022,0.00029754638671875,0.000397607855859234
1023,-0.000369548797607422,0.000322426553483817
1024,-0.00028228759765625,0.000342341185472124
1025,-0.000172138214111328,0.000384339031953758
1026,0.000152111053466797,0.000381946266069427
1027,-0.000360012054443359,0.000244140625
1028,0.000400066375732422,0.000193771977509633
1029,0.0000271797180175781,0.000243267345229402
1030,0.0000391006469726562,0.000336007491433278
1031,0,0.000423121983657901
1032,0.0000147819519042969,0.000452029553988578
1033,-0.000500202178955078,0.000416291674736141
1034,-0.000217914581298828,0.000481030148791384
1035,-0.000719070434570313,0.000582100804064487
1036,0.000819683074951172,0.000419850717659053
1037,0.0000429153442382813,0.000375539460557366
1038,0.000289440155029297,0.000569004008699354
1039,0.00069427490234375,0.000448458185802918
1040,-0.0010991096496582,0.000598676600573862
1041,-0.000642776489257813,0.000587141270700681
1042,0.0000157356262207031,0.000456458456203581
1043,0.000518321990966797,0.000677525029706528
1044,-0.000528335571289063,0.000690375897228966
1045,-0.000354766845703125,0.000767067233261717
1046,0.000200271606445312,0.000570306809769292
1047,0.000390529632568359,0.000560020425521929
1048,0.000270843505859375,0.000958969673541281
1049,0.00181818008422852,0.000772869339729558
1050,0.0000882148742675781,0.000617615862718227
1051,0.0000510215759277344,0.000588675894910203
1052,0.00144767761230469,0.000550322141779495
1053,-0.000635147094726563,0.000852480290977241
1054,0.00107192993164062,0.000786179398998507
1055,0.000464439392089844,0.00110752428344913
1056,0.001129150390625,0.000642422655104653
1057,-0.000202655792236328,0.00104728551722654
1058,-0.0000753402709960938,0.00110513037298157
1059,-0.0000162124633789062,0.000880773864748629
1060,0.00200414657592773,0.000812987078416639
1061,-0.000746250152587891,0.000895763699695488
1062,0.000828266143798828,0.000826689873401762
1063,0.00118684768676758,0.00106344564688928
1064,-0.00258398056030273,0.00101536894284754
1065,0.00290346145629883,0.000950724809024556
1066,-0.00106573104858398,0.000955990838869469
1067,-0.000287532806396484,0.00108833252819538
1068,0.00120639801025391,0.00136256799921911
1069,0.00168466567993164,0.00121621259619075
1070,-0.000220298767089844,0.00158980912445003
1071,-0.000873565673828125,0.00132402421568901
1072,0.000742912292480469,0.000804548502694657
1073,0.0019078254699707,0.00087175639996861
1074,-0.000543117523193359,0.00112390588995839
1075,-0.0000205039978027344,0.000954025204003245
1076,-0.000233650207519531,0.00148261731634842
1077,0.00255250930786133,0.00134923852415675
1078,0.00171804428100586,0.00154585164590315
1079,0.00135993957519531,0.00154671744786936
1080,-0.00120973587036133,0.00129317674663749
1081,0.00192928314208984,0.00148183190689755
1082,-0.000339984893798828,0.00200796619895706
1083,-0.000590324401855469,0.00143371731436088
1084,0.00162506103515625,0.00237429895846068
1085,0.00143146514892578,0.00180457357773654
1086,-0.0026240348815918,0.00256474781304305
1087,0.00294351577758789,0.00206614371508705
1088,0.000774860382080078,0.00165527973905281
1089,-0.00156450271606445,0.0014693667202582
1090,0.00132322311401367,0.00170533608258274
1091,-0.00441265106201172,0.00181813450087605
1092,0.00369596481323242,0.00228892008237496
1093,-0.00135517120361328,0.00212880615559025
1094,-0.00017547607421875,0.00293016429835941
1095,-0.00000286102294921875,0.00242182508540246
1096,-0.0042119026184082,0.00240939130035408
1097,-0.00325441360473633,0.00219821909244561
1098,0.00269365310668945,0.0033535333231935
1099,0.000340461730957031,0.00337388354396498
1100,-0.00114870071411133,0.0021978483487008
