Wavelength (nm),Absorbance (AU),Std.Dev.
190,0.481339931488037,0.173149240497506
191,0.721451282501221,0.176825241800189
192,0.767104625701904,0.150950788145987
193,0.928301334381104,0.206883791826021
194,1.0702166557312,0.275570641518281
195,1.27007389068604,0.475055249665105
196,1.39119720458984,0.382443620104446
197,0.974770545959473,0.171805627867919
198,1.03041172027588,0.515684182209664
199,1.76008892059326,1.08689256562861
200,1.35524559020996,0.541561801247385
201,1.89728355407715,0.353213354889457
202,2.10030937194824,0.822764193416771
203,3.34149599075317,1.76005065845063
204,3.81040811538696,1.30753805364079
205,3.97891235351563,1.81660365190787
206,3.99999952316284,1.11614899284045
207,3.47830581665039,0.377382972211047
208,3.69267749786377,0.187667771620177
209,3.48764038085937,0.482156904712272
210,3.99999952316284,0.536124807829588
211,3.97742509841919,0.282191079624998
212,3.64289999008179,0.494992934667853
213,3.92796754837036,0.976906189521287
214,3.95093488693237,0.470707177109115
215,3.50422096252441,0.374113943439404
216,3.82846927642822,0.815461849103776
217,3.99999952316284,0.733834575087431
218,3.9389853477478,0.390976404439098
219,3.73031425476074,0.245690393648694
220,3.84910202026367,0.2288575833505
221,3.79326009750366,0.199663451273422
222,3.53118753433228,0.390087520853694
223,3.67110061645508,0.726289431212258
224,3.91821432113647,0.383280565251121
225,3.70113849639893,0.366761305184269
226,3.56926536560059,0.179384722828282
227,3.26261425018311,0.0743936185212453
228,3.31849527359009,0.058879916429253
229,3.05464124679565,0.037350324107938
230,2.90448665618896,0.0268321542974459
231,2.80979490280151,0.026334388961236
232,2.67207860946655,0.0169638210605861
233,2.56269645690918,0.00785316375042804
234,2.45129585266113,0.00418380302952922
235,2.35651540756226,0.00628261994372994
236,2.29388332366943,0.00905523963015034
237,2.25751304626465,0.00776083072522087
238,2.21943187713623,0.00474320139093694
239,2.18660879135132,0.00443986189135554
240,2.17776441574097,0.00442473311777858
241,2.21381044387817,0.00527071352647866
242,2.22565650939941,0.00477831604639889
243,2.24993801116943,0.0049026087959041
244,2.31315326690674,0.00497810831420363
245,2.39216804504395,0.00562053927403386
246,2.48351430892944,0.0109868367395289
247,2.50963497161865,0.01866718121512
248,2.6320858001709,0.0341683505193853
249,2.80259418487549,0.0612904815801297
250,2.8883056640625,0.0473582471551513
251,2.99891090393066,0.081903266977585
252,3.2787127494812,0.115263337197287
253,3.31267833709717,0.0861674613202737
254,3.34607696533203,0.0941002977032062
255,3.32881355285645,0.091700726741461
256,3.24954509735107,0.16077730668907
257,3.4647102355957,0.124288441044002
258,3.34534406661987,0.103213463033734
259,3.4093337059021,0.12130816765291
260,3.42362356185913,0.205774487360405
261,3.43396234512329,0.166892216969399
262,3.3840594291687,0.173124453547197
263,3.37608766555786,0.219915283537988
264,3.37790536880493,0.356465378287946
265,3.5123291015625,0.187525429590667
266,3.09441041946411,0.123329443655452
267,3.40179395675659,0.306410393266225
268,3.898681640625,0.541998345967264
269,3.26331472396851,0.255837009995805
270,3.13822031021118,0.121720201045386
271,3.41759586334229,0.138399958977666
272,3.18585300445557,0.0986956405712706
273,2.89642715454102,0.0584929552971721
274,2.93403434753418,0.0481978363152961
275,2.92719268798828,0.0537541995514898
276,2.78302764892578,0.032530306843654
277,2.52233552932739,0.0195449780855717
278,2.24163103103638,0.0103437934367487
279,1.97102689743042,0.00511385743790367
280,1.72100925445557,0.00157128487083203
281,1.50223112106323,0.00108399172084484
282,1.33125162124634,0.000621198589845335
283,1.19100141525269,0.000836732780203564
284,1.07391691207886,0.00069156579288995
285,0.978416442871094,0.000470214631822326
286,0.901457786560059,0.000374569473761943
287,0.837745666503906,0.000428487472904757
288,0.785068988800049,0.000450077699888009
289,0.74150276184082,0.00034395794918365
290,0.705562114715576,0.000181303495585378
291,0.675018787384033,0.000172488550863812
292,0.649661540985107,0.000249884509813878
293,0.628242969512939,0.000355463472002271
294,0.61087703704834,0.000290969144066237
295,0.595913410186768,0.000278642681046805
296,0.583367824554443,0.000244564939366612
297,0.573556423187256,0.000254443453150212
298,0.565727233886719,0.000232590979728057
299,0.558385848999023,0.000277864758871843
300,0.553406238555908,0.000290912875255418
301,0.549197673797607,0.000382355615025839
302,0.546047687530518,0.000302644002792304
303,0.543806552886963,0.000215694904841288
304,0.542118549346924,0.000309525720877539
305,0.541808128356934,0.000355084594844925
306,0.542314529418945,0.000327614542939758
307,0.543487548828125,0.000273789249825709
308,0.544534206390381,0.000261592013183497
309,0.546331405639648,0.000284425270911884
310,0.548076629638672,0.000233141676576191
311,0.550178527832031,0.000268041868858681
312,0.553116321563721,0.000257400213742635
313,0.555086135864258,0.000330390003036997
314,0.558202743530273,0.000334526330929193
315,0.560993194580078,0.000210539670311818
316,0.563528537750244,0.00024555215484442
317,0.565793514251709,0.000241590382655386
318,0.568514823913574,0.000293341290520343
319,0.570342540740967,0.000378069024558523
320,0.572201728820801,0.000319599015903857
321,0.574015617370606,0.000302403494149562
322,0.574879169464111,0.000292751609282454
323,0.575784206390381,0.000268211470544105
324,0.57621431350708,0.000276177232351772
325,0.576675415039063,0.000244609561219993
326,0.576419353485107,0.000386368764744514
327,0.574559211730957,0.00023859399064807
328,0.573451995849609,0.000292104698595433
329,0.571247577667236,0.000205405596844989
330,0.568710803985596,0.000224310200150332
331,0.565746784210205,0.000301047052870924
332,0.562499046325684,0.00025709616283805
333,0.558194160461426,0.000282776898242901
334,0.553274154663086,0.000280036196170547
335,0.548419952392578,0.000284751245216698
336,0.544000625610352,0.000297350696867448
337,0.537451267242432,0.000389771721632227
338,0.531108379364014,0.000359544070916483
339,0.524471282958984,0.000272610768443342
340,0.51724910736084,0.000187667985632752
341,0.50965690612793,0.000245010792202752
342,0.502181053161621,0.000242780832506399
343,0.493321895599365,0.000234444882236625
344,0.485010147094727,0.00020358657261518
345,0.476026058197022,0.000220639102171618
346,0.466629505157471,0.000252887384916419
347,0.457159519195557,0.000189850665079849
348,0.447738170623779,0.000160489532226277
349,0.437638282775879,0.000174389460225907
350,0.428179264068604,0.000180796127120354
351,0.417551994323731,0.000230840409324009
352,0.407382965087891,0.000196271642343702
353,0.397134304046631,0.000221153763437435
354,0.386406898498535,0.000213375970462357
355,0.376291751861572,0.000216620566067196
356,0.365542411804199,0.000218064258849303
357,0.354445934295654,0.000216972958575879
358,0.344019889831543,0.000219477737788372
359,0.333511352539062,0.000316067869361532
360,0.322906017303467,0.000331126929238528
361,0.312145233154297,0.000373499578763804
362,0.301395416259766,0.00029103790228339
363,0.291373729705811,0.000279815260281186
364,0.2818922996521,0.000286286612584258
365,0.273140907287598,0.000286286612584258
366,0.264834403991699,0.000284271741898361
367,0.257740497589111,0.000198313816699858
368,0.24983549118042,0.000189606188115473
369,0.241737842559814,0.000216120359763375
370,0.233470439910889,0.000211070340104064
371,0.225564956665039,0.000220585508465202
372,0.217414855957031,0.000166344422229119
373,0.209560394287109,0.000194427975827786
374,0.202054500579834,0.000160792431063465
375,0.194636344909668,0.000197270016220053
376,0.187325477600098,0.000199274578581438
377,0.180394649505615,0.000196905457356011
378,0.173140048980713,0.000165917406058747
379,0.166193962097168,0.000131084260689817
380,0.159707546234131,0.000179168984463766
381,0.153613090515137,0.00023977276552701
382,0.14737606048584,0.000211565290756903
383,0.141248226165771,0.000195351984086141
384,0.135312557220459,0.000229159822133743
385,0.129910469055176,0.000189467031113536
386,0.124416351318359,0.000124384140355028
387,0.118934631347656,0.000138906191719853
388,0.113509178161621,0.000166884830819612
389,0.109160900115967,0.000149669150143466
390,0.104398250579834,0.00020735344832342
391,0.0998063087463379,0.00017943275186755
392,0.095273494720459,0.00023294654298053
393,0.0908288955688477,0.000207966610416456
394,0.0868072509765625,0.000137312543718535
395,0.0829477310180664,0.000155714895720564
396,0.0790266990661621,0.000188079469721595
397,0.0758609771728516,0.000216145607960633
398,0.0717267990112305,0.000184515648838162
399,0.0683565139770508,0.000161052411965367
400,0.0651979446411133,0.000168366062093459
401,0.0622096061706543,0.000167241414020639
402,0.0593719482421875,0.000200734285231367
403,0.0561494827270508,0.000183675791729789
404,0.0533690452575684,0.000186179112883185
405,0.0506162643432617,0.000136408768426272
406,0.0481505393981934,0.000154991882232355
407,0.0458722114562988,0.000157367821471148
408,0.0435876846313477,0.000148598862257909
409,0.0413608551025391,0.000184742247953009
410,0.0390028953552246,0.000244773105087126
411,0.0368423461914062,0.000200012584484537
412,0.0350489616394043,0.000227950107044702
413,0.0333123207092285,0.000214659357053504
414,0.0313291549682617,0.000198744446206676
415,0.0295424461364746,0.000153298511405397
416,0.0281939506530762,0.00017267563320551
417,0.026557445526123,0.000210440290863531
418,0.0246825218200684,0.00021613719222259
419,0.0234293937683105,0.000166445540975735
420,0.0221142768859863,0.000117518836985489
421,0.0207366943359375,0.000124354888984089
422,0.0194106101989746,0.000124668981541511
423,0.0183653831481934,0.000145650142186177
424,0.0174288749694824,0.000141924554465269
425,0.0164065361022949,0.000194072137592753
426,0.015282154083252,0.000236449695088375
427,0.0142641067504883,0.000236599659539323
428,0.0136442184448242,0.000198822226418121
429,0.0128226280212402,0.000169260400288571
430,0.0115585327148437,0.000128286034425346
431,0.0112266540527344,0.000160492365702893
432,0.0103793144226074,0.000143314754474681
433,0.00986289978027344,0.000144575264952707
434,0.00886058807373047,0.000152876699831789
435,0.00834274291992188,0.000155767453769708
436,0.00779294967651367,0.000130489692338486
437,0.00734663009643555,0.000193654601114729
438,0.00675725936889648,0.000149023627750405
439,0.00604486465454102,0.000128777817935107
440,0.00559568405151367,0.000173474380506929
441,0.00521659851074219,0.000172775678559197
442,0.00479030609130859,0.000118126722048617
443,0.00419044494628906,0.00010485648024673
444,0.00415849685668945,0.000119127245326642
445,0.00370597839355469,0.000126058285841814
446,0.0032505989074707,0.000142164662496691
447,0.00302553176879883,0.00011708852691244
448,0.00260305404663086,0.000145209246144671
449,0.00242280960083008,0.000116052799583657
450,0.00228357315063477,0.000143216355610604
451,0.00190877914428711,0.000155852093345741
452,0.00168466567993164,0.000126612612379058
453,0.0016322135925293,0.000150644322158647
454,0.00135374069213867,0.000158450627144362
455,0.00103044509887695,0.0001752790090852
456,0.000802516937255859,0.000144364369188268
457,0.000792026519775391,0.000115780146870831
458,0.000704288482666016,0.00010956053611588
459,0.000109672546386719,0.000160242827967916
460,0.000162601470947266,0.000134920481973588
461,0.000210285186767578,0.0000945509289805076
462,0.0000443458557128906,0.0000840275832303815
463,-0.000547409057617188,0.000080098707854632
464,-0.000293731689453125,0.000073463879289897
465,-0.000325202941894531,0.0000902167838385183
466,-0.000380992889404297,0.0000974312626919868
467,-0.000680446624755859,0.000128491467892946
468,-0.000747203826904297,0.000118242155355035
469,-0.000731468200683594,0.000123918959585425
470,-0.000885009765625,0.000110874637029908
471,-0.00100326538085937,0.000120238628482624
472,-0.00103569030761719,0.0000986119533898206
473,-0.00104713439941406,0.000121054671047078
474,-0.00109195709228516,0.000106378512053937
475,-0.00120115280151367,0.0000843570620656435
476,-0.00110483169555664,0.0000962337248619362
477,-0.00139522552490234,0.000116728723434342
478,-0.00144195556640625,0.000105578250908646
479,-0.00136327743530273,0.0000804979650454387
480,-0.00153684616088867,0.000106314370648013
481,-0.00141525268554687,0.000120789544273672
482,-0.00151538848876953,0.000137385383305116
483,-0.00164890289306641,0.000087468105223069
484,-0.00147294998168945,0.0000758470919837354
485,-0.00158452987670898,0.0000992531705400562
486,-0.0016021728515625,0.000086192850465872
487,-0.00142145156860352,0.0000918230397709961
488,-0.00150442123413086,0.0000893201406400154
489,-0.00152921676635742,0.000112485066969198
490,-0.00166034698486328,0.0000854563497224503
491,-0.00167083740234375,0.0000771003072029409
492,-0.00174331665039062,0.0000675663278234744
493,-0.00164890289306641,0.0000719044505291825
494,-0.00171422958374023,0.000093345669371083
495,-0.00162029266357422,0.0000843260595890241
496,-0.00158452987670898,0.000113397049525182
497,-0.00175666809082031,0.000123702256880501
498,-0.00164794921875,0.000113222470479536
499,-0.00169658660888672,0.0000847456483398996
500,-0.00177288055419922,0.0000965710032669207
501,-0.00152492523193359,0.000087683598588547
502,-0.00152873992919922,0.0000795389536361429
503,-0.00174617767333984,0.0000716319882016925
504,-0.00150585174560547,0.0000772329010304401
505,-0.0016331672668457,0.00006330271444426
506,-0.0015864372253418,0.0000622578432430869
507,-0.00158834457397461,0.0000814177630119619
508,-0.00152254104614258,0.0000804584110801615
509,-0.0015869140625,0.000102658510883384
510,-0.0014491081237793,0.0000876913775891912
511,-0.00160074234008789,0.0000883758210794956
512,-0.00147914886474609,0.000102116656345464
513,-0.00149631500244141,0.0000963989736219473
514,-0.00150823593139648,0.0000716097654113684
515,-0.0014338493347168,0.0000761835969179976
516,-0.00134468078613281,0.000111069285290075
517,-0.00141286849975586,0.000102662940497024
518,-0.00143241882324219,0.0000664773251260508
519,-0.00131034851074219,0.000110880789041955
520,-0.00131130218505859,0.000113148142580895
521,-0.00126266479492187,0.000106310093178312
522,-0.0013422966003418,0.000113977048447368
523,-0.00133228302001953,0.000107272464846213
524,-0.00132894515991211,0.0000953698157966144
525,-0.00129127502441406,0.00008984300461491
526,-0.00127887725830078,0.0000953292770355209
527,-0.00126409530639648,0.0000955270385296157
528,-0.00122594833374023,0.0000872077674076411
529,-0.00120401382446289,0.000104360907689282
530,-0.00109529495239258,0.0000901411430238121
531,-0.00113487243652344,0.000108144312703434
532,-0.00120735168457031,0.0000840668102173892
533,-0.00134658813476562,0.0000846382597795729
534,-0.00118017196655273,0.000081406591529608
535,-0.00104856491088867,0.0000992714956120868
536,-0.00106191635131836,0.0000738851444724619
537,-0.0011439323425293,0.000065628801100745
538,-0.001190185546875,0.0000749999823785987
539,-0.00108242034912109,0.0000721049683633863
540,-0.00112009048461914,0.0000863720457746165
541,-0.000990867614746094,0.0000535832164642942
542,-0.00109052658081055,0.0000638267509976529
543,-0.00100183486938477,0.0000757811118991383
544,-0.000940799713134766,0.0000630706148049894
545,-0.000977993011474609,0.0000772314290163163
546,-0.000916957855224609,0.0000764309130488935
547,-0.000952243804931641,0.0000715192156190974
548,-0.00103759765625,0.000098022225933102
549,-0.00099945068359375,0.0000816116234047491
550,-0.000954627990722656,0.0000896960987550926
551,-0.0011138916015625,0.0000691841256485581
552,-0.000954151153564453,0.0000619686534028354
553,-0.000986576080322266,0.0000779275055659928
554,-0.000853538513183594,0.0000758995351832258
555,-0.000870704650878906,0.0000906793339120279
556,-0.000926017761230469,0.0000915974269499709
557,-0.000883102416992188,0.0000898379428945975
558,-0.000771999359130859,0.0000593159359178339
559,-0.000888824462890625,0.0000633816858227282
560,-0.000823020935058594,0.0000527525014928175
561,-0.000781536102294922,0.0000408037221149378
562,-0.000854969024658203,0.0000608887630432711
563,-0.000896930694580078,0.0000885557342357742
564,-0.000750064849853516,0.0000884838128711249
565,-0.000786781311035156,0.0000801469506902586
566,-0.000783920288085938,0.0000846892863246663
567,-0.000843524932861328,0.0000560593012366247
568,-0.000791072845458984,0.0000439996949939588
569,-0.0008392333984375,0.0000573474745879093
570,-0.0008544921875,0.000075497041637477
571,-0.000680446624755859,0.0000728078970255529
572,-0.000687122344970703,0.0000608112280537791
573,-0.000763416290283203,0.0000551989215273001
574,-0.00077056884765625,0.0000550390722844252
575,-0.000672817230224609,0.000072237288511005
576,-0.000687122344970703,0.000071058336671835
577,-0.000646114349365234,0.000082058950750368
578,-0.000688552856445313,0.0000574850877363357
579,-0.000592231750488281,0.0000801923292002479
580,-0.000680923461914063,0.0000603674712338226
581,-0.000714302062988281,0.0000583789689975646
582,-0.000640392303466797,0.000058354621498863
583,-0.000433444976806641,0.0000741477947899825
584,-0.000531196594238281,0.0000602421051570198
585,-0.0007171630859375,0.0000605958536925816
586,-0.000593185424804688,0.0000481393030705412
587,-0.000586986541748047,0.0000534823413574598
588,-0.000538825988769531,0.0000740925773603631
589,-0.000625133514404297,0.0000580861254509381
590,-0.000667095184326172,0.0000754141746879296
591,-0.000627994537353516,0.0000812933938076
592,-0.000620841979980469,0.0000778019407704572
593,-0.000644683837890625,0.0000662100027378456
594,-0.0006103515625,0.0000559395227749351
595,-0.000592708587646484,0.0000643482867176485
596,-0.000565528869628906,0.0000550122133725723
597,-0.000612735748291016,0.0000581692474689888
598,-0.000604152679443359,0.000074714463832693
599,-0.000639438629150391,0.0000727219658503133
600,-0.000617504119873047,0.000072904643454042
601,-0.000538825988769531,0.0000764889014356319
602,-0.000552177429199219,0.0000470573291331078
603,-0.000530719757080078,0.0000613046448599222
604,-0.00058746337890625,0.000071533520574972
605,-0.000572681427001953,0.0000551721404333407
606,-0.000586032867431641,0.0000454173313132883
607,-0.000656604766845703,0.0000396413460216355
608,-0.000596046447753906,0.0000509814523527095
609,-0.000576972961425781,0.0000517681352340574
610,-0.000647544860839844,0.0000524325767990104
611,-0.000523090362548828,0.0000484406475036632
612,-0.00049591064453125,0.0000619392930679198
613,-0.000589370727539063,0.0000580734021821672
614,-0.000566005706787109,0.0000590104045013513
615,-0.000592231750488281,0.000072019777035277
616,-0.000634670257568359,0.0000552534735575627
617,-0.000600337982177734,0.0000581213445823486
618,-0.000546932220458984,0.0000613639587951704
619,-0.000534534454345703,0.0000415033266346093
620,-0.000561237335205078,0.0000539226720551574
621,-0.000505447387695313,0.0000579548439187565
622,-0.000569343566894531,0.0000718981259227379
623,-0.000453948974609375,0.0000608588817358036
624,-0.000573158264160156,0.0000564453153693758
625,-0.000583648681640625,0.0000608990313564556
626,-0.000474929809570313,0.0000588261307023356
627,-0.000445842742919922,0.0000766892918797314
628,-0.000630855560302734,0.0000776834906523827
629,-0.000615119934082031,0.0000730059334990301
630,-0.000555038452148438,0.0000539163466913488
631,-0.000502109527587891,0.000056972562727947
632,-0.000517368316650391,0.0000756835360680637
633,-0.000584602355957031,0.0000724447318759665
634,-0.000580787658691406,0.0000459238992962673
635,-0.000514030456542969,0.0000423922715513623
636,-0.00048065185546875,0.0000614176625703325
637,-0.000460147857666016,0.0000628340393448987
638,-0.000445365905761719,0.0000630922414880361
639,-0.000473499298095703,0.0000519522782402166
640,-0.000576496124267578,0.0000538034194908233
641,-0.000464439392089844,0.0000724557160775379
642,-0.000452518463134766,0.0000787748840062408
643,-0.000560283660888672,0.0000858253901223813
644,-0.00041961669921875,0.0000728906075848048
645,-0.000487804412841797,0.0000909622341929837
646,-0.000504016876220703,0.0000948702248798057
647,-0.000444889068603516,0.0000743697832130538
648,-0.000475406646728516,0.0000969704373591782
649,-0.000543594360351563,0.0000779289644318034
650,-0.000539779663085938,0.0000734979168492571
651,-0.000420093536376953,0.0000676066980687554
652,-0.000420570373535156,0.0000620108345299105
653,-0.000483989715576172,0.0000733012095698224
654,-0.000476837158203125,0.0000868786310321101
655,-0.000518321990966797,0.0000942450277601658
656,-0.000691413879394531,0.0000599668938996546
657,0.000219345092773437,0.0000449265636000526
658,-0.000198841094970703,0.0000486116715293921
659,-0.000508785247802734,0.0000688134010551778
660,-0.00045013427734375,0.000061759156451171
661,-0.000441074371337891,0.0000693367795154325
662,-0.000427722930908203,0.0000773491016233399
663,-0.000479698181152344,0.0000608719566127181
664,-0.000446319580078125,0.0000780193608362102
665,-0.000395298004150391,0.0000836329420981033
666,-0.000506877899169922,0.0000711574618606182
667,-0.00046539306640625,0.0000963777432253263
668,-0.000360488891601562,0.0000567846790807009
669,-0.000418663024902344,0.0000676167868640067
670,-0.000409603118896484,0.0000509200913973738
671,-0.000414848327636719,0.0000397580405915753
672,-0.000379562377929687,0.0000540174636294874
673,-0.000409603118896484,0.0000454285941358578
674,-0.000379562377929687,0.0000479831828616878
675,-0.000427722930908203,0.0000580058242697141
676,-0.000408649444580078,0.0000552400978573164
677,-0.000411033630371094,0.0000517944814600646
678,-0.000406265258789063,0.0000706813581988822
679,-0.000461101531982422,0.0000598292885842946
680,-0.000366687774658203,0.000061219280397035
681,-0.000407218933105469,0.0000709686852403441
682,-0.000360488891601562,0.0000615914149950696
683,-0.000387668609619141,0.000058406226146489
684,-0.000322818756103516,0.0000552709599737289
685,-0.000421524047851563,0.0000399968040848231
686,-0.000372886657714844,0.0000594709804990592
687,-0.00032806396484375,0.0000651716215639873
688,-0.000352859497070312,0.0000708516478738193
689,-0.000403404235839844,0.00007224358342527
690,-0.000342845916748047,0.0000527072249939741
691,-0.000393867492675781,0.0000574544255918101
692,-0.000370979309082031,0.0000678953157142382
693,-0.000345706939697266,0.0000533418613707528
694,-0.00043487548828125,0.0000531636010123195
695,-0.000435829162597656,0.0000470222852150734
696,-0.000420093536376953,0.0000494900922597089
697,-0.000422477722167969,0.0000665303189519891
698,-0.000259876251220703,0.0000456171445583397
699,-0.000340938568115234,0.0000570004924123122
700,-0.000462055206298828,0.0000730028189778581
701,-0.000422954559326172,0.0000548735781947443
702,-0.000336647033691406,0.0000446511598183516
703,-0.000346660614013672,0.0000558001354077176
704,-0.000369071960449219,0.0000475966134854009
705,-0.000405311584472656,0.0000409871980136764
706,-0.000400543212890625,0.000046695969285374
707,-0.000371456146240234,0.0000383075671546839
708,-0.000432968139648438,0.0000383320431771257
709,-0.000301837921142578,0.0000422727637933365
710,-0.000398159027099609,0.000047731375718087
711,-0.000385761260986328,0.0000463293373164792
712,-0.000375270843505859,0.0000578782891964261
713,-0.000346183776855469,0.0000623910035468907
714,-0.000386238098144531,0.0000485274062418913
715,-0.000329971313476562,0.000043238640662398
716,-0.000400543212890625,0.0000673674889085745
717,-0.000342845916748047,0.0000742014390079995
718,-0.000385284423828125,0.0000538319374862543
719,-0.000309467315673828,0.0000684007903433534
720,-0.000457763671875,0.000050033830221461
721,-0.000350475311279297,0.0000428384515885241
722,-0.000316143035888672,0.0000532704153951258
723,-0.000296592712402344,0.0000440900355885762
724,-0.000337600708007812,0.0000432281222311379
725,-0.00032806396484375,0.0000428895077816779
726,-0.000364780426025391,0.0000455597880056664
727,-0.000307559967041016,0.0000408037221149378
728,-0.000244140625,0.00005164500846923
729,-0.000280380249023437,0.0000486572542952503
730,-0.000325202941894531,0.0000556338400343801
731,-0.000310897827148437,0.000052423903088976
732,-0.000309467315673828,0.0000498095157535066
733,-0.000310897827148437,0.000052023349169395
734,-0.000316619873046875,0.0000504850989390029
735,-0.000298500061035156,0.0000555418071507945
736,-0.000325679779052734,0.0000604587397025889
737,-0.000275135040283203,0.0000619796599427055
738,-0.000248432159423828,0.0000520790446103286
739,-0.000334739685058594,0.0000450554344597539
740,-0.000333786010742187,0.0000441171016930404
741,-0.000250339508056641,0.0000452920003957524
742,-0.000308990478515625,0.0000448797248645073
743,-0.000319480895996094,0.0000545837975609099
744,-0.000244140625,0.0000371007195039997
745,-0.000324726104736328,0.0000452204063460149
746,-0.0003204345703125,0.0000594231703936553
747,-0.000275611877441406,0.0000672864371580606
748,-0.000338554382324219,0.0000582307789908818
749,-0.000276088714599609,0.000048337272252938
750,-0.000353813171386719,0.0000400713475688066
751,-0.000329971313476562,0.0000398037657827553
752,-0.000285625457763672,0.0000468041843862044
753,-0.000287532806396484,0.0000470476644525513
754,-0.000267982482910156,0.000051872344030275
755,-0.000322341918945312,0.0000360761267077975
756,-0.000211715698242187,0.0000530287085553116
757,-0.000178813934326172,0.0000420367858205874
758,-0.000245094299316406,0.0000464824520749423
759,-0.000256061553955078,0.0000593283927196663
760,-0.000235080718994141,0.0000535354572125983
761,-0.000243186950683594,0.0000454298453882271
762,-0.000257968902587891,0.0000596399202866352
763,-0.000206470489501953,0.0000614583720616075
764,-0.000298023223876953,0.0000485531694845499
765,-0.000195980072021484,0.0000442624589743567
766,-0.000192642211914062,0.0000463820658251241
767,-0.000194549560546875,0.0000634856343664197
768,-0.000214099884033203,0.0000645176710393304
769,-0.000263214111328125,0.0000542463833595044
770,-0.000234127044677734,0.0000440719822843698
771,-0.000185489654541016,0.0000497227076890628
772,-0.000242710113525391,0.0000627453200669147
773,-0.00018310546875,0.0000523392590866556
774,-0.00019073486328125,0.0000454173313132883
775,-0.000212669372558594,0.0000507120296980971
776,-0.000223636627197266,0.0000660070781722931
777,-0.000206947326660156,0.000052088867035712
778,-0.000242233276367187,0.0000384630578512862
779,-0.000245571136474609,0.0000511939710317183
780,-0.000257015228271484,0.0000435882373124178
781,-0.000215053558349609,0.0000446384274448234
782,-0.000225543975830078,0.0000605630121890622
783,-0.000201702117919922,0.0000612526980506881
784,-0.000281810760498047,0.0000379894401308713
785,-0.000196933746337891,0.0000455360761726848
786,-0.000218868255615234,0.0000463575483977713
787,-0.000263690948486328,0.0000491859320000749
788,-0.000189304351806641,0.0000662134367775635
789,-0.000300407409667969,0.0000599213767845983
790,-0.000235557556152344,0.0000580107238654851
791,-0.000168800354003906,0.0000488263554550438
792,-0.000217437744140625,0.0000616559849466003
793,-0.000200271606445312,0.000072607754674186
794,-0.000264644622802734,0.0000521074154540921
795,-0.000261306762695312,0.0000560440893634004
796,-0.000203132629394531,0.0000576756176536887
797,-0.000207424163818359,0.000052217479026809
798,-0.000246524810791016,0.0000619484696673846
799,-0.000188350677490234,0.0000594231703936553
800,-0.000277042388916016,0.0000586655063759487
801,-0.000256061553955078,0.0000612304216413986
802,-0.000235557556152344,0.0000460610873249948
803,-0.0001220703125,0.0000588328943812245
804,-0.000165462493896484,0.0000523696598537385
805,-0.000127315521240234,0.0000523305699093588
806,-0.000176429748535156,0.0000637982457761128
807,-0.000174045562744141,0.0000542275183325525
808,-0.000142097473144531,0.0000429577088529785
809,-0.000200271606445312,0.0000510638943871596
810,-0.000202178955078125,0.0000557634502641438
811,-0.000136852264404297,0.0000354835416463309
812,-0.000208377838134766,0.0000304975481163646
813,-0.000127315521240234,0.0000472273445078207
814,-0.000184059143066406,0.0000574385935646173
815,-0.000171184539794922,0.0000681927152279845
816,-0.000225067138671875,0.00005225882906982
817,-0.000158309936523437,0.0000550648858064123
818,-0.000180721282958984,0.0000710887284342692
819,-0.000160694122314453,0.0000574732204596328
820,-0.000146389007568359,0.0000581633839290849
821,-0.000123500823974609,0.000060063503239655
822,-0.000111579895019531,0.0000416127512759826
823,-0.000182628631591797,0.0000481924102718975
824,-0.00019073486328125,0.0000536203331393947
825,-0.000136852264404297,0.0000540185159348229
826,-0.000162601470947266,0.0000595311665625321
827,-0.000222206115722656,0.0000471213075746088
828,-0.000155448913574219,0.000056842709425977
829,-0.000150680541992187,0.0000438469852180312
830,-0.000256538391113281,0.0000497558496885131
831,-0.0001678466796875,0.0000406977092569867
832,-0.0001678466796875,0.0000436442775862504
833,-0.000204086303710937,0.000053905802768946
834,-0.0001220703125,0.0000719550273679181
835,-0.000264167785644531,0.0000617039074556622
836,-0.000186443328857422,0.0000488042307295749
837,-0.000151634216308594,0.0000566222792775714
838,-0.000209331512451172,0.0000707263802251402
839,-0.000172138214111328,0.0000610686746591073
840,-0.000140190124511719,0.0000489008071982096
841,-0.000117778778076172,0.0000599393981090777
842,-0.000091552734375,0.0000496506333207898
843,-0.000134944915771484,0.0000500179222969316
844,-0.0001068115234375,0.0000517044097638084
845,-0.000166893005371094,0.0000493382465162195
846,-0.00006866455078125,0.0000560856587098644
847,-0.000110626220703125,0.000059842588415199
848,-0.0000958442687988281,0.0000531379336114209
849,-0.0000939369201660156,0.0000497021256774094
850,-0.000168323516845703,0.0000418965962152267
851,-0.000111579895019531,0.0000577829450361103
852,-0.000166893005371094,0.0000630111031532516
853,-0.000143051147460937,0.0000584898651111359
854,-0.000113010406494141,0.0000437665343472785
855,-0.000234127044677734,0.0000541215426045622
856,-0.000145912170410156,0.0000598587342371368
857,-0.000115394592285156,0.0000650476496602537
858,-0.000174999237060547,0.000063710869198376
859,-0.000113964080810547,0.0000629948629454079
860,-0.000142097473144531,0.0000724243282247058
861,-0.0000896453857421875,0.0000700447654626244
862,-0.000268459320068359,0.0000540700538084537
863,-0.0000767707824707031,0.0000636055013906929
864,-0.000185012817382812,0.0000622121748807635
865,-0.000165939331054687,0.0000567546401025198
866,-0.000134468078613281,0.0000671748313198209
867,-0.0000929832458496094,0.0000626782447449525
868,-0.000187397003173828,0.0000711830201470296
869,-0.000183582305908203,0.000062987643731203
870,-0.000169277191162109,0.0000546795221745836
871,-0.000170230865478516,0.0000630381608688052
872,-0.000246047973632812,0.0000493117407117985
873,-0.000144004821777344,0.0000534142759893053
874,-0.000258922576904297,0.0000625111508945995
875,-0.0000967979431152344,0.0000820797295523259
876,-0.000133037567138672,0.0000649812013328183
877,-0.000166893005371094,0.0000525268109127701
878,-0.0000996589660644531,0.0000668950021032831
879,-0.000216960906982422,0.0000668354937720799
880,-0.000171184539794922,0.0000452266910605598
881,-0.000220775604248047,0.0000464995695316356
882,-0.000202655792236328,0.0000638712649381744
883,-0.000165939331054687,0.0000724557160775379
884,-0.000176429748535156,0.0000784103576320437
885,-0.0000634193420410156,0.000080938806124568
886,-0.000118255615234375,0.0000635071197190681
887,-0.000133991241455078,0.0000650563878085797
888,-0.0000371932983398437,0.000069747113102321
889,-0.000151634216308594,0.000084100611900346
890,-0.000128746032714844,0.0000723646537968163
891,-0.000170707702636719,0.0000641164257582535
892,-0.0000410079956054688,0.000065692863843134
893,-0.000187397003173828,0.0000593063519821558
894,-0.0000338554382324219,0.0000712325132309058
895,-0.000166893005371094,0.000059162406642843
896,-0.000139236450195312,0.000053146490789078
897,-0.0001373291015625,0.0000538720483493752
898,-0.000011444091796875,0.0000657482191205718
899,-0.0000829696655273438,0.0000528397108963057
900,-0.0000262260437011719,0.0000618106776250886
901,-0.0001678466796875,0.000092545727111497
902,-0.000157356262207031,0.0000678148948204951
903,-0.000103950500488281,0.0000585762959675336
904,-0.00005340576171875,0.0000741539275218725
905,-0.0000705718994140625,0.0000679589147618098
906,-0.0000195503234863281,0.0000710599365623366
907,-0.000128746032714844,0.0000774754003411785
908,0.00005340576171875,0.0000735381227442055
909,-0.000104904174804687,0.000065900206380297
910,-0.0000820159912109375,0.0000783712006718541
911,-0.0000624656677246094,0.0000765676357714426
912,-0.0000176429748535156,0.0000807686704245017
913,-0.0000391006469726562,0.0000613287480646878
914,-0.0000333786010742187,0.0000503780206568039
915,-0.0000958442687988281,0.0000667776348996628
916,0.0000295639038085937,0.0000757135727942802
917,-0.000104427337646484,0.0000588290295170797
918,-0.00018310546875,0.000061654141029293
919,-0.000105381011962891,0.0000799779734525013
920,-0.0000810623168945313,0.0000700431423840951
921,-0.00000476837158203125,0.0000713664510111607
922,-0.0000271797180175781,0.0000750393834752901
923,-0.00014495849609375,0.0000976457254877882
924,0.000003814697265625,0.0000852085453710676
925,-0.0000476837158203125,0.0000916743464210831
926,-0.0000653266906738281,0.000116449843295018
927,-0.000130176544189453,0.0000739297532141452
928,0.00000715255737304688,0.0000782216441030063
929,-0.000103473663330078,0.0000902545804733989
930,-0.000159740447998047,0.0000975152390879849
931,0.000130176544189453,0.0000944739448517348
932,-0.000156402587890625,0.000107676545534305
933,-0.0000672340393066406,0.0000792152680667201
934,-0.000155925750732422,0.0000874655056805995
935,-0.0000605583190917969,0.0000927665827126097
936,-0.000179290771484375,0.00010715158008719
937,-0.000126361846923828,0.000106038120494559
938,-0.000159263610839844,0.0000785233680547999
939,-0.000105381011962891,0.0000968179071444053
940,-0.000123977661132812,0.0000848689771983303
941,-0.000276565551757812,0.0000672357301972868
942,-0.0000247955322265625,0.0000751226638538665
943,-0.000138282775878906,0.0000817674930911315
944,-0.0000934600830078125,0.00009223317566382
945,-0.0000658035278320313,0.000112801975271509
946,-0.00002288818359375,0.000116769621772873
947,-0.0000181198120117187,0.0000876524756822465
948,-0.000154018402099609,0.000108559809992343
949,-0.00000238418579101562,0.0000986050359226317
950,-0.000151157379150391,0.0000991064479829478
951,-0.0000486373901367188,0.000103698652866912
952,-0.0000696182250976563,0.0000974662616499588
953,-0.000115394592285156,0.0000758036115617281
954,-0.0000767707824707031,0.0000692547493663759
955,-0.0000796318054199219,0.0000933407975948018
956,-0.0000448226928710938,0.000143916374480025
957,-0.000218391418457031,0.000131620876305283
958,-0.00000905990600585938,0.000125204036195956
959,-0.000110149383544922,0.000137993081605636
960,-0.0000586509704589844,0.000112545691661616
961,-0.000189304351806641,0.000116557183852962
962,-0.000153541564941406,0.000116389298629886
963,0.0000934600830078125,0.000140514129114436
964,-0.000220775604248047,0.0000960776585666217
965,0.0000205039978027344,0.0000834791936871675
966,-0.0000391006469726562,0.000115481257406111
967,-0.000064849853515625,0.000138154463595668
968,-0.0000948905944824219,0.000110661155840799
969,-0.0000152587890625,0.000138893096010225
970,-0.00005340576171875,0.000127046457929232
971,-0.0000486373901367188,0.000138548890921651
972,-0.000145912170410156,0.000160092350522944
973,-0.0000944137573242188,0.000148611102691394
974,-0.0000548362731933594,0.000139063244043125
975,-0.000194072723388672,0.000151267898781946
976,0.0000925064086914063,0.000135307532483188
977,-0.0000786781311035156,0.000195900583041528
978,-0.000257492065429687,0.000189845874439919
979,-0.000216960906982422,0.000138364964757413
980,-0.00011444091796875,0.000162958357571393
981,-0.000176429748535156,0.000168339050483959
982,0.0000433921813964844,0.000159913296913513
983,0.0000214576721191406,0.000170747656382256
984,0.0000324249267578125,0.0001599786889179
985,0.000234603881835937,0.000159751123100116
986,-0.000192165374755859,0.000168430872282077
987,0.000072479248046875,0.000232317099225626
988,-0.000186920166015625,0.000185317349265917
989,0.0000505447387695313,0.000176251811433971
990,-0.0000820159912109375,0.000179265406011435
991,-0.000138282775878906,0.000206646062719914
992,0.000118732452392578,0.000203729478009711
993,-0.000141143798828125,0.000153123392764483
994,-0.000207424163818359,0.000191049316595352
995,-0.000291824340820312,0.000149419797681304
996,0.000396251678466797,0.000138072149414219
997,-0.000113964080810547,0.000203765188698506
998,-0.0000443458557128906,0.000193184382372257
999,0.000205039978027344,0.000236703425425192
1000,0.000120162963867187,0.000270527668940284
1001,-0.000197887420654297,0.000304531370716355
1002,-0.000101089477539062,0.000217425195432253
1003,0.0000605583190917969,0.000217801342179226
1004,-0.000208377838134766,0.000265244928604388
1005,0.000168323516845703,0.000203237819747505
1006,0.0000672340393066406,0.000285006650457044
1007,0.0000662803649902344,0.000234933172352888
1008,0.000222206115722656,0.000252419414521554
1009,-0.000111103057861328,0.000317927040649637
1010,-0.000249385833740234,0.000359058063501874
1011,0.00029754638671875,0.000286102294921875
1012,0.000148296356201172,0.000313200352098175
1013,-0.000296115875244141,0.000315405343137878
1014,-0.0000257492065429687,0.000241349327054684
1015,0.000565528869628906,0.000208577969988698
1016,-0.0000529289245605469,0.000195486951940775
1017,0.0000734329223632813,0.000225704712480057
1018,0.000338554382324219,0.000299672332478424
1019,-0.00002288818359375,0.000338149836441924
1020,0.000176906585693359,0.000377038008516271
1021,0.0000548362731933594,0.000384963251084682
1022,0.000894069671630859,0.000305354542828104
1023,0.000175952911376953,0.000434649559360495
1024,0.000325679779052734,0.000304782136714539
1025,0.000739574432373047,0.000373548276832874
1026,0.0000624656677246094,0.000343359839237819
1027,-0.000157356262207031,0.00033425434498985
1028,0.000559806823730469,0.000305318798885555
1029,0.000329017639160156,0.000405929319079581
1030,0.000204563140869141,0.000364038860542026
1031,0.000633716583251953,0.000396379904536894
1032,-0.000313282012939453,0.000408128040768459
1033,-0.000226020812988281,0.000473083984311752
1034,0.000391483306884766,0.000504882064501505
1035,-0.000144004821777344,0.000573360547059209
1036,0.000723361968994141,0.000518546323475312
1037,0.000145912170410156,0.000338789361349709
1038,0.000469684600830078,0.000385869403576715
1039,0.000721454620361328,0.000528097959995729
1040,-0.00100278854370117,0.000577671636846495
1041,-0.000250816345214844,0.000588280246108112
1042,0.000409603118896484,0.000466392569445127
1043,0.000124454498291016,0.000638924782663324
1044,0.000728130340576172,0.000606500876456628
1045,-0.000095367431640625,0.000699828020963661
1046,0.000689983367919922,0.000475806075166467
1047,0.000303745269775391,0.000508357612848049
1048,0.000767230987548828,0.000675686161153817
1049,0.00194597244262695,0.000685765444182726
1050,-0.000142574310302734,0.000545221536886684
1051,0.000568866729736328,0.000658253619693695
1052,-0.00000476837158203125,0.00062852274636999
1053,0.00132369995117187,0.000815881615313406
1054,0.00051116943359375,0.000751524406685089
1055,0.000952720642089844,0.00115155847916231
1056,0.00197839736938477,0.000896153501149836
1057,0.000401020050048828,0.00059129038151888
1058,0.000172615051269531,0.000890255868274831
1059,0.00145626068115234,0.000882342033860808
1060,0.00168943405151367,0.000796787899997979
1061,-0.000786781311035156,0.00113775224502288
1062,0.00166797637939453,0.00119489569191057
1063,-0.0000662803649902344,0.00114885103960995
1064,-0.0000491142272949219,0.000959864553345324
1065,0.00127983093261719,0.00118041305776689
1066,0.000472068786621094,0.00127869198599948
1067,0.00106620788574219,0.0016541540811606
1068,0.00168800354003906,0.00150556392467814
1069,0.000664234161376953,0.00151139056662668
1070,-0.000102519989013672,0.00185756564862466
1071,0.000462055206298828,0.00168849377598546
1072,0.00191497802734375,0.00100525777844228
1073,-0.0016942024230957,0.00112636325280521
1074,0.0000414848327636719,0.00116207475370238
1075,0.000451564788818359,0.00107137998544568
1076,-0.00314474105834961,0.00130527324148517
1077,0.00397491455078125,0.00177389575482384
1078,0.00388097763061523,0.00200029863050289
1079,-0.000121116638183594,0.00171225099354316
1080,0.00145769119262695,0.00200622614299696
1081,0.0031285285949707,0.0021136590052396
1082,-0.000617504119873047,0.00219249206814478
1083,-0.00242996215820312,0.00143975387495586
1084,0.00294113159179687,0.00271314828746251
1085,0.00134611129760742,0.00191778759576715
1086,-0.000617027282714844,0.00246300678448143
1087,0.00163459777832031,0.00191708938499913
1088,0.0014805793762207,0.00219678873609042
1089,-0.00131607055664062,0.00192030511486846
1090,0.000704288482666016,0.00226005280037405
1091,-0.000171184539794922,0.00234965534117678
1092,0.00295400619506836,0.00263628426256882
1093,0.0000133514404296875,0.00203966123187341
1094,0.000291824340820312,0.00262504394812352
1095,0.00236368179321289,0.0029170239462463
1096,0.00158262252807617,0.00246102083155915
1097,-0.000359058380126953,0.0026244230033607
1098,0.00158786773681641,0.00319510444299518
1099,-0.00227212905883789,0.00395164340604991
1100,0.00424957275390625,0.00206479101023469
