Wavelength (nm),Absorbance (AU),Std.Dev.
190,0.488508701324463,0.178232689143973
191,0.980935096740723,0.216197792763254
192,0.761198043823242,0.211235683339761
193,0.622715950012207,0.182572792899247
194,1.03512525558472,0.267713526416882
195,0.963220596313477,0.199883045332823
196,1.19991731643677,0.208824595754409
197,1.21364212036133,0.194254949361818
198,0.873652935028076,0.214812675309519
199,1.35093116760254,0.457773502498609
200,1.64936065673828,0.450871619516195
201,1.76739501953125,0.214029886030568
202,1.87833833694458,0.415965189137527
203,3.31290531158447,0.975342988549413
204,3.87059545516968,1.04222966556381
205,3.21064853668213,0.50662421065353
206,3.70359039306641,0.395506606865446
207,3.61876964569092,0.431786421926577
208,3.7905387878418,0.341858253417535
209,3.53879308700562,0.491256560070703
210,3.88169145584106,0.878063832389195
211,3.98837661743164,0.637700546733879
212,3.79935693740845,0.850379051511736
213,3.99280881881714,0.437874769728565
214,3.57968902587891,0.391288499004411
215,3.53985452651978,0.785243698488326
216,3.99999952316284,0.547014491138603
217,3.86097240447998,0.444806798935118
218,3.95773363113403,0.234452298451142
219,3.59515047073364,0.180967334139039
220,3.60618448257446,0.161629206981029
221,3.49736738204956,0.132880698253214
222,3.40656566619873,0.203771881613554
223,3.75366592407227,0.20294651112289
224,3.60280847549438,0.154556249557706
225,3.54554748535156,0.217073830697375
226,3.54778146743774,0.138620286398743
227,3.28629302978516,0.134052546204997
228,3.20904207229614,0.0692120371850778
229,2.94974040985107,0.0472549300270907
230,2.86344242095947,0.0277553640112958
231,2.75786638259888,0.0205343166017841
232,2.64109373092651,0.0182995572489975
233,2.51534414291382,0.0109307472636855
234,2.41699552536011,0.00741256833069106
235,2.34719848632812,0.00628706550879106
236,2.27569007873535,0.00625885693505422
237,2.22135877609253,0.00493640103362905
238,2.19758176803589,0.00342694873989985
239,2.17845773696899,0.00323349545908459
240,2.15017175674438,0.00327029704852584
241,2.1636848449707,0.00453070423522655
242,2.20452499389648,0.00600568569521485
243,2.22027826309204,0.00733070086693369
244,2.2795844078064,0.00558429987450752
245,2.35165452957153,0.00619318891306925
246,2.43435478210449,0.00775927053005579
247,2.48861646652222,0.0184180600112483
248,2.63631629943848,0.0177846014152865
249,2.72582626342773,0.0452839728695765
250,2.81655216217041,0.0850114343469546
251,3.113440990448,0.0671009304431243
252,3.21492338180542,0.0791121110829127
253,3.25683116912842,0.0736172039781301
254,3.29043340682983,0.12021837392004
255,3.60336780548096,0.154864462382383
256,3.59536218643188,0.102894195286148
257,3.14695835113525,0.137857976836104
258,3.32472658157349,0.15399991201423
259,3.37782859802246,0.185567433071638
260,3.42881011962891,0.172804659067146
261,3.19701194763184,0.165489169869929
262,3.32195997238159,0.226250795816107
263,3.64422988891602,0.163205770906627
264,3.35984611511231,0.112931335922767
265,3.11779022216797,0.0793813771967601
266,3.08107137680054,0.103547864967634
267,3.05865144729614,0.109879556086213
268,3.30443286895752,0.115676291146873
269,3.23352241516113,0.0664259937331209
270,3.01089859008789,0.0893407924251968
271,3.1693115234375,0.11101071802579
272,3.18127202987671,0.0595032361216409
273,2.91712713241577,0.03469804345807
274,2.97941446304321,0.0542464866379477
275,2.85297441482544,0.0424425679524915
276,2.72975301742554,0.0189998823965348
277,2.49306678771973,0.016443736528647
278,2.21907615661621,0.0093750079472826
279,1.95264148712158,0.00400432026281049
280,1.70134687423706,0.00183781330177057
281,1.48757362365723,0.00141137612696994
282,1.31836748123169,0.000896039826575757
283,1.18084478378296,0.000777131639947623
284,1.06722021102905,0.000541283900747046
285,0.974225044250488,0.000708959203331046
286,0.897121906280518,0.000379768392350316
287,0.834399700164795,0.000350215387300858
288,0.783026218414307,0.000240144206780047
289,0.739375591278076,0.000273430251553375
290,0.704075813293457,0.000254078597941351
291,0.674017429351807,0.000262050544671564
292,0.649274349212647,0.000301065178954143
293,0.627698421478272,0.00033527044185481
294,0.610076904296875,0.000281384027189789
295,0.59557056427002,0.000266155449562262
296,0.583739280700684,0.0002913814499928
297,0.573764324188232,0.000267253508713415
298,0.565125465393066,0.000196720612952578
299,0.55775785446167,0.000203894587515315
300,0.553019523620606,0.000283355240418303
301,0.548917293548584,0.000256579158337406
302,0.545358180999756,0.000287801149198303
303,0.543153762817383,0.000181162981340499
304,0.541714191436768,0.000188234148314459
305,0.541136264801025,0.000332983960698622
306,0.540987491607666,0.000308513272858625
307,0.541913032531738,0.000255420973977424
308,0.542716503143311,0.000217358256752065
309,0.544848918914795,0.000363088248241925
310,0.545772552490234,0.00027779928803875
311,0.547650337219238,0.000177250063407729
312,0.550883769989014,0.000179772035458241
313,0.55291223526001,0.000229354211997824
314,0.554985523223877,0.000334063823073295
315,0.558463096618652,0.000279138370867013
316,0.560920238494873,0.0002297424982947
317,0.562989711761475,0.000280963524563391
318,0.564761161804199,0.000238761655018404
319,0.56738805770874,0.000206553616429653
320,0.569239139556885,0.000170968565006203
321,0.570188045501709,0.000201552698690416
322,0.570286273956299,0.000306952786475165
323,0.572499752044678,0.000292216766391076
324,0.57262134552002,0.00023328597035546
325,0.572057723999023,0.000195928436865177
326,0.572147846221924,0.000280918202121958
327,0.570566654205322,0.00036921855568124
328,0.568862915039063,0.000281442201112072
329,0.566741466522217,0.000267892530555628
330,0.564202785491943,0.00031286913520259
331,0.560208320617676,0.000266387714827713
332,0.557003021240234,0.000248006668643203
333,0.5530104637146,0.00025963772317483
334,0.54851770401001,0.000219394844052066
335,0.543135643005371,0.000245426190756035
336,0.537671089172363,0.000315122626160635
337,0.53228235244751,0.000208665160850289
338,0.52575159072876,0.000196822298856903
339,0.518565177917481,0.000331692259608312
340,0.511302471160889,0.000309748954928713
341,0.504131317138672,0.000188909378031283
342,0.496442317962647,0.000224974176637372
343,0.487515449523926,0.000244460790034098
344,0.478939533233643,0.000372162772377351
345,0.470019340515137,0.000354161309731749
346,0.461098670959473,0.000258648008466351
347,0.451191425323486,0.000198355087655187
348,0.44170618057251,0.000172572894770745
349,0.432323932647705,0.000256259937264514
350,0.422078609466553,0.000215141823834019
351,0.411448478698731,0.00018056457589781
352,0.401804447174072,0.000237570206914126
353,0.391251087188721,0.000334792662772791
354,0.380460739135742,0.000286458112073582
355,0.370364665985107,0.000205379028332556
356,0.359454154968262,0.000214180049883323
357,0.348812103271484,0.000209925358829527
358,0.338282108306885,0.000198945697193366
359,0.32777214050293,0.000205984821836733
360,0.317491054534912,0.000209738980009327
361,0.3068528175354,0.000277183106315969
362,0.296383380889893,0.000341804112630236
363,0.286956787109375,0.000301300718804597
364,0.276780128479004,0.000234274128475999
365,0.267584800720215,0.000234274128475999
366,0.259946823120117,0.000196956259154206
367,0.253182411193848,0.000283938810915238
368,0.245385646820068,0.000181358667824056
369,0.237260341644287,0.000176442635555263
370,0.229172706604004,0.000184722554716842
371,0.221066951751709,0.000215985652864576
372,0.213406562805176,0.000180614938372194
373,0.20562219619751,0.000161708972123922
374,0.198080539703369,0.000194287591220808
375,0.1910080909729,0.000180816247995951
376,0.183606147766113,0.000200833938950133
377,0.176634788513184,0.000267960421920046
378,0.169823169708252,0.000276743075517518
379,0.162934303283691,0.000182966338387305
380,0.156398296356201,0.000159543186061075
381,0.150502681732178,0.000161829848722513
382,0.144631862640381,0.000187343002381774
383,0.138315677642822,0.000155396247788591
384,0.132556915283203,0.000215399542052076
385,0.127109050750732,0.000191923253989202
386,0.12180233001709,0.000128119320859884
387,0.11646842956543,0.000115679947676924
388,0.111395359039307,0.000134933963236808
389,0.106875896453857,0.000159289306577878
390,0.102066516876221,0.00017615374033806
391,0.0979571342468262,0.000226002704522684
392,0.0932397842407227,0.000227574748814005
393,0.0887846946716309,0.000181263359773146
394,0.0847721099853516,0.000108624718703668
395,0.0810809135437012,0.000138627641718605
396,0.0772776603698731,0.000143856325700823
397,0.073481559753418,0.000162824354924811
398,0.0699954032897949,0.000191377510801023
399,0.0667428970336914,0.000175693625889425
400,0.0637712478637695,0.00020580371294407
401,0.0608458518981934,0.000172190380909613
402,0.0578451156616211,0.000219945500493422
403,0.0549693107604981,0.000182822127463158
404,0.0522079467773438,0.000147196780808333
405,0.0494852066040039,0.000094951677071419
406,0.0468120574951172,0.0000779727177138041
407,0.044644832611084,0.000111960308713335
408,0.0424227714538574,0.000117833784903212
409,0.039909839630127,0.000177624241601485
410,0.0378661155700684,0.000213073124825964
411,0.0359296798706055,0.00021339301939934
412,0.0343747138977051,0.000200039865748319
413,0.0322742462158203,0.000205215113163952
414,0.0304498672485352,0.000146580704169013
415,0.0287785530090332,0.000125207668193525
416,0.0272331237792969,0.000174446819178001
417,0.0258016586303711,0.000193405527569708
418,0.0239415168762207,0.000187440071301438
419,0.0225648880004883,0.00015721459224697
420,0.0215487480163574,0.000116664425649089
421,0.0203261375427246,0.000129986893837561
422,0.0191226005554199,0.00014126939598159
423,0.0179705619812012,0.000147973257533864
424,0.0171175003051758,0.000129755793393669
425,0.0158863067626953,0.00021620450895465
426,0.014833927154541,0.000228037867619764
427,0.013969898223877,0.000219900009785955
428,0.0131087303161621,0.000161015701000676
429,0.0123319625854492,0.000166977452302851
430,0.0111989974975586,0.000128069619550356
431,0.0107846260070801,0.000144137390959456
432,0.0102033615112305,0.000142330899622289
433,0.00938272476196289,0.00014983009618852
434,0.00865793228149414,0.000119152055352291
435,0.00811481475830078,0.000114821754022922
436,0.00760221481323242,0.000115833158412888
437,0.00725412368774414,0.000159229343405429
438,0.00657796859741211,0.000144949084528521
439,0.0057978630065918,0.000126328553906112
440,0.00553035736083984,0.000164084647839412
441,0.00506973266601563,0.000156724992935975
442,0.00466728210449219,0.000150523526435462
443,0.00413417816162109,0.000163111766929806
444,0.00406312942504883,0.000129678668391457
445,0.00357151031494141,0.000104982173706227
446,0.00314950942993164,0.00016257000504035
447,0.00289106369018555,0.00011788780170332
448,0.00252914428710937,0.000115140129930416
449,0.00252008438110352,0.000115784074484071
450,0.00206565856933594,0.000143517687101805
451,0.00203561782836914,0.000148919840209527
452,0.00172138214111328,0.000106278006667974
453,0.00156068801879883,0.000131700316846663
454,0.00123834609985352,0.000132622464302194
455,0.000906944274902344,0.000160166187312451
456,0.000884056091308594,0.000132910178664147
457,0.000883102416992188,0.000115116430418001
458,0.000449180603027344,0.000125073214040794
459,0.000186920166015625,0.000152656420577478
460,0.000367641448974609,0.000146738839659015
461,0.000168800354003906,0.000104787067591877
462,-0.0000214576721191406,0.00011312201577918
463,-0.000366687774658203,0.0000778267777833071
464,-0.000346183776855469,0.0000942812095158824
465,-0.000459671020507813,0.000102481169337215
466,-0.000370979309082031,0.0000984227009819557
467,-0.000506401062011719,0.0001519996510165
468,-0.000659942626953125,0.000108049658672798
469,-0.000604629516601563,0.000116726775536979
470,-0.000821590423583984,0.0000970688678741415
471,-0.000943183898925781,0.0000987225669449428
472,-0.000885486602783203,0.000093301814226839
473,-0.00106716156005859,0.0000993836629494708
474,-0.00100374221801758,0.000108712597716126
475,-0.00111007690429687,0.0000925653800586524
476,-0.00101423263549805,0.0000886045047709422
477,-0.00122308731079102,0.000103241576689955
478,-0.00132131576538086,0.000113465202819837
479,-0.00120973587036133,0.0000720529189651281
480,-0.00132465362548828,0.0000691364549652904
481,-0.0013432502746582,0.000116748200620481
482,-0.00148630142211914,0.000145384513856197
483,-0.00143575668334961,0.0000967944196238286
484,-0.00137424468994141,0.0000690574794554967
485,-0.00153970718383789,0.0000882238950498827
486,-0.00148916244506836,0.0000783508893586526
487,-0.00131607055664062,0.0000763192730824218
488,-0.00131034851074219,0.0000736863852389597
489,-0.00140285491943359,0.000101580865023708
490,-0.00145149230957031,0.0000904634364069418
491,-0.00164365768432617,0.0000924965764749049
492,-0.00163841247558594,0.0000716938582241862
493,-0.00152826309204102,0.0000759145123002457
494,-0.00164031982421875,0.000107448246818203
495,-0.00155305862426758,0.000107359332875947
496,-0.00151824951171875,0.000113587375351976
497,-0.00169038772583008,0.000122196906727249
498,-0.00153589248657227,0.0000859484923746494
499,-0.00154924392700195,0.0000694334504430166
500,-0.00145816802978516,0.0000927935401255669
501,-0.0014643669128418,0.000108098047754705
502,-0.00161409378051758,0.0000875927925354388
503,-0.00147342681884766,0.0000877717202256375
504,-0.00137615203857422,0.0000919714927237735
505,-0.00144767761230469,0.000097356556196933
506,-0.00147628784179687,0.0000741033173051618
507,-0.00145483016967773,0.0000805840689631562
508,-0.00133705139160156,0.0000646866118233271
509,-0.00136661529541016,0.0000758126095570785
510,-0.00131893157958984,0.000107002938280308
511,-0.00134801864624023,0.0000999881018383633
512,-0.00132417678833008,0.000109881740582257
513,-0.00148677825927734,0.0000794474243151036
514,-0.00135087966918945,0.0000646584856795665
515,-0.00124263763427734,0.0000682660299994403
516,-0.00115394592285156,0.000103893614436312
517,-0.00133466720581055,0.0000902747322080566
518,-0.00127410888671875,0.0000676251930436411
519,-0.00114870071411133,0.000104936681392713
520,-0.00111150741577148,0.000109981020118151
521,-0.00129508972167969,0.000107706104381849
522,-0.00128078460693359,0.000115262499782662
523,-0.00122213363647461,0.000108150620026659
524,-0.00121593475341797,0.000101240063915577
525,-0.00106954574584961,0.0000943800355433503
526,-0.00112295150756836,0.0000837063150691669
527,-0.00121498107910156,0.0000770899847908907
528,-0.00113153457641602,0.0000864062613868577
529,-0.00118017196655273,0.000108517912800403
530,-0.00102090835571289,0.000093301814226839
531,-0.00103139877319336,0.000101143444698813
532,-0.00113773345947266,0.0000942932670159018
533,-0.00117635726928711,0.000094358350891726
534,-0.00107192993164062,0.0000894193640697399
535,-0.000965595245361328,0.0000897594497290145
536,-0.00103425979614258,0.0000654171227242308
537,-0.000983238220214844,0.000077374083997294
538,-0.000964641571044922,0.0000842545756681093
539,-0.00104618072509766,0.0000670681252257245
540,-0.000998973846435547,0.0000622048648314014
541,-0.000884056091308594,0.0000769009877999173
542,-0.000910758972167969,0.0000664294233980865
543,-0.000925064086914063,0.000069893657916136
544,-0.000956535339355469,0.0000643041029920379
545,-0.000799655914306641,0.0000793285649387554
546,-0.000791072845458984,0.0000955127562482277
547,-0.000877857208251953,0.0000905689390204503
548,-0.000961780548095703,0.0000834001684979348
549,-0.000911235809326172,0.0000809879522861945
550,-0.000803947448730469,0.0000929795777991198
551,-0.00100612640380859,0.0000751483863897526
552,-0.000860691070556641,0.0000698497267543752
553,-0.000806331634521484,0.0000764160371436068
554,-0.000764846801757813,0.0000882883024049329
555,-0.000892162322998047,0.0000961344392612014
556,-0.000747203826904297,0.0000820353950790071
557,-0.000746726989746094,0.0000790126509278408
558,-0.000723838806152344,0.0000573821564681144
559,-0.000783443450927734,0.000070234406730184
560,-0.0007476806640625,0.0000712309172165832
561,-0.000700950622558594,0.0000735953009555178
562,-0.000719070434570313,0.0000742274807826616
563,-0.000803470611572266,0.0000833688101807188
564,-0.000716686248779297,0.0000911320518217356
565,-0.000739574432373047,0.0000670732103176804
566,-0.000767230987548828,0.00007291399919915
567,-0.000804901123046875,0.0000644242118426043
568,-0.000666141510009766,0.0000602449358391441
569,-0.000682353973388672,0.0000609801834618127
570,-0.000664710998535156,0.0000813926250204158
571,-0.000593185424804688,0.000075865076593216
572,-0.000539302825927734,0.0000619979998336062
573,-0.000563621520996094,0.0000640188292603376
574,-0.000625133514404297,0.0000684971225145341
575,-0.000547409057617188,0.0000761313493951305
576,-0.000570774078369141,0.000073829730606312
577,-0.000472545623779297,0.0000832651074076953
578,-0.000607490539550781,0.0000714412828319469
579,-0.000449657440185547,0.0000559639052639538
580,-0.000640869140625,0.0000514144566314088
581,-0.000621318817138672,0.0000608775592717625
582,-0.000525474548339844,0.0000633709227933314
583,-0.000257968902587891,0.000075349324322236
584,-0.000504016876220703,0.000058642247179326
585,-0.000610828399658203,0.0000601854635562952
586,-0.000470161437988281,0.0000461646342986643
587,-0.000490665435791016,0.0000530447851688552
588,-0.000479221343994141,0.0000734267294117743
589,-0.000476837158203125,0.000063320671133256
590,-0.000588417053222656,0.0000802518495545713
591,-0.000516891479492188,0.0000777069025167386
592,-0.000529289245605469,0.0000650424062077717
593,-0.000466346740722656,0.0000599185308168403
594,-0.00048065185546875,0.0000563233301553093
595,-0.000439643859863281,0.0000741799859760142
596,-0.000531196594238281,0.0000620456581795162
597,-0.000544071197509766,0.0000637928996290572
598,-0.000509262084960938,0.0000821448024291787
599,-0.000467300415039063,0.0000853724965450396
600,-0.000414848327636719,0.000067920427715583
601,-0.00042724609375,0.0000736601521658885
602,-0.000484943389892578,0.0000548549288652873
603,-0.000461578369140625,0.0000598340388632709
604,-0.000461101531982422,0.000063739413496044
605,-0.0004119873046875,0.0000438767923847886
606,-0.000423431396484375,0.0000477623291488381
607,-0.000529289245605469,0.0000519905592744408
608,-0.000394821166992187,0.0000618915528177483
609,-0.000429630279541016,0.0000527557340415512
610,-0.000495433807373047,0.000055052496826398
611,-0.000462532043457031,0.0000811800382424561
612,-0.000449657440185547,0.000071270806852468
613,-0.000457286834716797,0.0000625747717918963
614,-0.000432968139648438,0.0000624529265011112
615,-0.000547885894775391,0.0000830354101220712
616,-0.000501155853271484,0.0000740449960224366
617,-0.000423431396484375,0.0000623527262948768
618,-0.000481605529785156,0.0000730292881739679
619,-0.000459671020507813,0.0000630165156257949
620,-0.000463008880615234,0.0000682393791961606
621,-0.000418663024902344,0.0000632452187789507
622,-0.000466823577880859,0.0000810454856003966
623,-0.000406265258789063,0.0000731801351304741
624,-0.000476837158203125,0.0000707553078285232
625,-0.000547409057617188,0.0000679505498669857
626,-0.000363349914550781,0.0000711398852122736
627,-0.000378608703613281,0.0000852805627486546
628,-0.000497817993164063,0.0000771017817204201
629,-0.000365734100341797,0.0000712261289590372
630,-0.000481128692626953,0.000067025734456307
631,-0.000458717346191406,0.000070615381300008
632,-0.000393867492675781,0.0000822858473920273
633,-0.000503063201904297,0.0000694449109449422
634,-0.000483036041259766,0.0000550473339284652
635,-0.000398635864257812,0.0000517758209348312
636,-0.000353336334228516,0.0000648042574638156
637,-0.000339031219482422,0.0000567396146497376
638,-0.000396251678466797,0.000057220458984375
639,-0.000387191772460937,0.0000559486674535415
640,-0.000448703765869141,0.0000507781200865713
641,-0.000432968139648438,0.0000678969901366145
642,-0.000393390655517578,0.0000856808838600282
643,-0.000385761260986328,0.0000923637391113529
644,-0.000316619873046875,0.0000849800877014874
645,-0.000463485717773438,0.0000828668351758474
646,-0.000363826751708984,0.000092835186184982
647,-0.000307559967041016,0.0000934576501335033
648,-0.000391006469726562,0.00010113894853537
649,-0.000448703765869141,0.0000668354937720799
650,-0.000371932983398437,0.0000663814871036333
651,-0.000406265258789063,0.0000764085981048983
652,-0.000370025634765625,0.0000827899718941626
653,-0.000518798828125,0.0000767974333381136
654,-0.0004119873046875,0.0000992462977657142
655,-0.000385284423828125,0.0000981566713129144
656,-0.000584125518798828,0.0000517044097638084
657,0.000365734100341797,0.0000397179878672768
658,-0.000178813934326172,0.0000467251755652765
659,-0.000285625457763672,0.0000682343810117089
660,-0.000325679779052734,0.0000573732402727236
661,-0.000362873077392578,0.00007482849812381
662,-0.000396728515625,0.0000872181958402533
663,-0.000338077545166016,0.0000709863042788742
664,-0.00023651123046875,0.0000469012432998908
665,-0.000363826751708984,0.0000587139334420082
666,-0.000367164611816406,0.0000747996258789549
667,-0.000317096710205078,0.0000705509541333623
668,-0.000280857086181641,0.0000650493973838232
669,-0.000437736511230469,0.0000701615284422024
670,-0.000223636627197266,0.0000541278439892424
671,-0.000303268432617187,0.0000478503177806934
672,-0.000277042388916016,0.0000541393946229426
673,-0.000294685363769531,0.0000509602632849839
674,-0.000282764434814453,0.0000425769124161209
675,-0.000319004058837891,0.00006197599131327
676,-0.000309467315673828,0.0000632847526601557
677,-0.000278472900390625,0.0000663968989725336
678,-0.000265598297119141,0.0000862376842012657
679,-0.000316619873046875,0.0000690212521466149
680,-0.000289440155029297,0.0000743743690809068
681,-0.000298976898193359,0.0000747692219975756
682,-0.000256538391113281,0.0000683592259882257
683,-0.000307083129882812,0.0000673269752301132
684,-0.000231266021728516,0.0000509435288482164
685,-0.000319957733154297,0.0000436012763618322
686,-0.00028228759765625,0.0000617407456126486
687,-0.000224113464355469,0.0000686463358349226
688,-0.000201225280761719,0.0000795146514363859
689,-0.000336170196533203,0.0000836410978289822
690,-0.000245094299316406,0.0000719881991072297
691,-0.000275611877441406,0.0000535927632073483
692,-0.000260829925537109,0.0000606989541662963
693,-0.000229358673095703,0.0000475165297254681
694,-0.000319480895996094,0.0000572581961488132
695,-0.000336170196533203,0.0000498494423130197
696,-0.000286102294921875,0.000053629873275248
697,-0.000296115875244141,0.0000538551632060833
698,-0.000178337097167969,0.0000479843675000087
699,-0.000247955322265625,0.0000620859558981668
700,-0.000340938568115234,0.0000671646761385308
701,-0.000342845916748047,0.0000437548437002352
702,-0.000244617462158203,0.0000550659180955965
703,-0.000300407409667969,0.0000732422495881453
704,-0.000326633453369141,0.0000647094553134437
705,-0.000305652618408203,0.0000456669612648502
706,-0.000324249267578125,0.0000430535369700573
707,-0.000299930572509766,0.000055522358484302
708,-0.000316143035888672,0.0000594040355773828
709,-0.000333786010742187,0.0000562991033292597
710,-0.00028228759765625,0.0000556787785231568
711,-0.0002593994140625,0.0000501756417133372
712,-0.000308990478515625,0.0000660604492323656
713,-0.000247478485107422,0.0000729186766215623
714,-0.000315189361572266,0.0000616670472926024
715,-0.000237464904785156,0.0000515282067899548
716,-0.000285148620605469,0.0000613491356875696
717,-0.000282764434814453,0.0000591883426393374
718,-0.000330448150634766,0.0000592382614528239
719,-0.000222682952880859,0.0000761582240265712
720,-0.000285148620605469,0.0000540942281220157
721,-0.000248432159423828,0.0000478099106800129
722,-0.000264167785644531,0.0000614694699709997
723,-0.000187873840332031,0.0000435791076565319
724,-0.000226020812988281,0.0000452970202905194
725,-0.000246524810791016,0.0000465887229464502
726,-0.000191688537597656,0.000049322114244699
727,-0.000145435333251953,0.0000438534667603242
728,-0.000201225280761719,0.0000459610175225195
729,-0.000233173370361328,0.0000480672196306007
730,-0.000194072723388672,0.0000689124559517896
731,-0.000253677368164062,0.0000723410845509067
732,-0.000283718109130859,0.0000632955303422742
733,-0.000222682952880859,0.0000393845555246435
734,-0.000199317932128906,0.0000448049347783065
735,-0.000239372253417969,0.0000538055324532799
736,-0.000248432159423828,0.0000524152279436098
737,-0.000218391418457031,0.0000635196494853376
738,-0.000202178955078125,0.0000645986769633066
739,-0.000243663787841797,0.0000508362980073075
740,-0.000248432159423828,0.0000446511598183516
741,-0.000224113464355469,0.0000622377532921209
742,-0.000215053558349609,0.000062692753598097
743,-0.000200271606445312,0.0000629587585964166
744,-0.000166893005371094,0.0000442701637164687
745,-0.000258922576904297,0.0000581868345434553
746,-0.000207424163818359,0.0000544972930395584
747,-0.000193119049072266,0.0000666685878623832
748,-0.000217437744140625,0.0000728032124858319
749,-0.000213146209716797,0.0000600805358206718
750,-0.000248908996582031,0.0000604549787782157
751,-0.000238895416259766,0.0000590354444142996
752,-0.000210285186767578,0.0000510193476680575
753,-0.000174999237060547,0.0000562940547614937
754,-0.000217914581298828,0.0000583146695946138
755,-0.000252723693847656,0.0000452756818939092
756,-0.000186920166015625,0.0000566333211616821
757,-0.000163555145263672,0.0000431451999746639
758,-0.0000972747802734375,0.0000440358534721153
759,-0.0000810623168945313,0.0000616983798350539
760,-0.000200271606445312,0.0000611393753998742
761,-0.000140190124511719,0.0000476025844830641
762,-0.0000929832458496094,0.000067930469916823
763,-0.000168323516845703,0.0000598796223677308
764,-0.000159263610839844,0.0000599318108434639
765,-0.0000910758972167969,0.0000554444955968805
766,-0.000140666961669922,0.0000532576089804696
767,-0.000125408172607422,0.0000710263312938166
768,-0.000130176544189453,0.000062605650042871
769,-0.000102043151855469,0.0000597389615152394
770,-0.000168800354003906,0.0000545723409884115
771,-0.0000538825988769531,0.0000638392180297072
772,-0.000117301940917969,0.0000823742228870924
773,-0.0000638961791992188,0.0000653893107985547
774,-0.000115394592285156,0.0000533535821638205
775,-0.0000824928283691406,0.0000567205766956227
776,-0.000149726867675781,0.0000629822287775101
777,-0.000132560729980469,0.0000543542073060737
778,-0.000193595886230469,0.0000580283589848666
779,-0.000102043151855469,0.000070896561759708
780,-0.000130176544189453,0.0000628195631232241
781,-0.000158309936523437,0.0000520473819632714
782,-0.000143527984619141,0.0000581956260875931
783,-0.0000734329223632813,0.0000553634430993277
784,-0.000226974487304687,0.0000413661387848431
785,-0.0000786781311035156,0.000043698945218506
786,-0.000149726867675781,0.0000478847557162744
787,-0.0001678466796875,0.0000514266167068956
788,-0.0000829696655273438,0.0000673860495375474
789,-0.000156879425048828,0.0000596484976620174
790,-0.000143051147460937,0.0000492748393525596
791,-0.00011444091796875,0.0000568247063503813
792,-0.000176429748535156,0.0000704687240673491
793,-0.000105381011962891,0.0000760656158786868
794,-0.000138282775878906,0.00005273525788641
795,-0.000135898590087891,0.0000528956213988142
796,-0.0000791549682617188,0.0000565569877745924
797,-0.0000863075256347656,0.0000541645874556802
798,-0.000130176544189453,0.0000548082777791664
799,-0.000112056732177734,0.0000592325037367727
800,-0.000153064727783203,0.0000602807796407446
801,-0.000126361846923828,0.0000683908172018929
802,-0.0000963211059570313,0.0000535004066649696
803,-0.0000967979431152344,0.0000529772306074368
804,-0.000057220458984375,0.0000580528433189933
805,-0.000087738037109375,0.0000596961273050587
806,-0.0000967979431152344,0.0000736925563695965
807,-0.0000476837158203125,0.0000650039412992553
808,-0.0000605583190917969,0.0000494234296188219
809,-0.000123977661132812,0.0000555172392817829
810,-0.0000867843627929688,0.0000552452427406605
811,-0.0000138282775878906,0.0000388139295880744
812,-0.000130653381347656,0.0000420266428690542
813,-0.0000739097595214844,0.0000446460673046697
814,-0.0000929832458496094,0.0000591470317967822
815,0.0000205039978027344,0.0000592296246688566
816,0.00000095367431640625,0.0000579352241463947
817,-0.0000195503234863281,0.0000749423588975105
818,-0.0000853538513183594,0.0000681293344345748
819,-0.0000376701354980469,0.0000558245787769593
820,0.0000281333923339844,0.0000555008546606914
821,-0.0000600814819335938,0.0000563999797823618
822,-0.0000143051147460937,0.0000569935112743724
823,-0.0000605583190917969,0.0000657101673766471
824,-0.000121593475341797,0.0000714412828319469
825,-0.0000157356262207031,0.0000771224220050143
826,-0.0000896453857421875,0.0000713823792450408
827,-0.0000734329223632813,0.0000537410497243954
828,-0.000057220458984375,0.0000581663157729222
829,-0.0000357627868652344,0.0000496357478060434
830,-0.00009918212890625,0.000053217035002743
831,-0.0000720024108886719,0.0000444367717592846
832,-0.0000472068786621094,0.0000459164720503151
833,-0.00011444091796875,0.0000559994440303925
834,-0.0000262260437011719,0.0000592392210177585
835,-0.0000782012939453125,0.0000537029580127758
836,-0.0000820159912109375,0.0000574613507320259
837,-0.0000481605529785156,0.0000586567852580329
838,-0.0000696182250976563,0.0000683093153782558
839,-0.0000753402709960938,0.0000537495108831858
840,-0.000011444091796875,0.0000524108898324545
841,-0.00006103515625,0.0000739897018756441
842,0.0000290870666503906,0.000066172216539011
843,-0.0000457763671875,0.0000503960708260168
844,0.0000257492065429687,0.0000492944466391684
845,-0.0000095367431640625,0.0000646021966558454
846,-0.0000181198120117187,0.0000645916370028494
847,-0.000041961669921875,0.0000837035986986686
848,-0.000026702880859375,0.0000568547083093275
849,-0.0000109672546386719,0.0000638997375863905
850,-0.0000662803649902344,0.0000488926695607063
851,-0.0000514984130859375,0.000053464269945774
852,0.000000476837158203125,0.0000670477810012244
853,-0.000000476837158203125,0.0000741339942883045
854,-0.0000271797180175781,0.0000468138993329929
855,0.0000100135803222656,0.0000716192903087141
856,0.0000057220458984375,0.0000688893558821037
857,-0.0000309944152832031,0.0000635411233363518
858,-0.0000519752502441406,0.0000740281049705636
859,-0.0000391006469726562,0.0000654866008625795
860,0.0000295639038085937,0.0000500042829050595
861,-0.000095367431640625,0.0000696606702617012
862,-0.0000848770141601563,0.0000590190733657569
863,-0.0000476837158203125,0.0000606089853112627
864,0.00000095367431640625,0.0000792683513192606
865,-0.000102996826171875,0.0000782550650163462
866,-0.0000185966491699219,0.000062799652869764
867,0.00000810623168945313,0.0000500474615608289
868,-0.0000553131103515625,0.0000716161154836884
869,-0.0000905990600585938,0.0000650528926900982
870,-0.0000786781311035156,0.0000721128513585627
871,-0.000095367431640625,0.0000581809727759954
872,-0.0000972747802734375,0.0000603787696563872
873,-0.0000376701354980469,0.0000606961446581986
874,-0.000124931335449219,0.0000645176710393304
875,-0.0000138282775878906,0.000079493202149104
876,-0.0000281333923339844,0.0000647235088384901
877,-0.000091552734375,0.0000516351016097319
878,-0.0000433921813964844,0.0000672306573977677
879,-0.0000691413879394531,0.0000797473617253085
880,-0.000111579895019531,0.0000525170703974089
881,-0.0000791549682617188,0.0000551690494705419
882,-0.0000762939453125,0.0000591143469716704
883,0.0000133514404296875,0.0000551422538685384
884,-0.0000777244567871094,0.0000565760807767037
885,-0.00000476837158203125,0.0000630904395475988
886,-0.0000314712524414062,0.0000733167174739394
887,-0.0000057220458984375,0.000070691008189807
888,0.0000476837158203125,0.0000659864068179038
889,-0.0000562667846679688,0.0000667759324091938
890,-0.0000276565551757812,0.0000596008299560469
891,0.000000476837158203125,0.0000622797521622084
892,0.000057220458984375,0.0000757511019534425
893,-0.000113964080810547,0.0000694661897179608
894,0.000155925750732422,0.0000717445835215725
895,-0.0000929832458496094,0.0000749241528014696
896,0.000019073486328125,0.0000633493912486383
897,-0.0000057220458984375,0.000056423155855716
898,0.0000658035278320313,0.0000464090200352907
899,0.0000104904174804687,0.0000571001297635848
900,-0.00000143051147460937,0.0000706684894945063
901,0.0000448226928710938,0.0000801554611177517
902,0.0000205039978027344,0.0000694645531206836
903,-0.0000329017639160156,0.000062137206106338
904,0.000026702880859375,0.0000783465362493167
905,0.0000662803649902344,0.0000546514464641358
906,0.0000977516174316406,0.0000915403158984328
907,0.0000338554382324219,0.0000988330567019014
908,0.0000605583190917969,0.0000809205442337707
909,-0.0000119209289550781,0.0000734793528623857
910,0.0000629425048828125,0.0000803990436459019
911,-0.0000615119934082031,0.0000703072094748175
912,0.0000452995300292969,0.0000661395656309621
913,0.0000538825988769531,0.000054458686503108
914,0.0000605583190917969,0.0000622669728962152
915,0.0000205039978027344,0.0000881517029441173
916,0.0000591278076171875,0.0000926905696405949
917,0.00000143051147460937,0.0000702635368800838
918,-0.0000681877136230469,0.0000793830045721953
919,-0.0000109672546386719,0.0000685087396504942
920,-0.0000100135803222656,0.0000648814012422358
921,0.00000333786010742187,0.0000719945158008853
922,0.000174522399902344,0.0000703427745045333
923,-0.0000605583190917969,0.000108066492115342
924,0.0000696182250976563,0.0000938146056275707
925,0.0000514984130859375,0.0000820728038695264
926,0.0000472068786621094,0.000111116359389238
927,0.0000567436218261719,0.000106581371848667
928,0.000064849853515625,0.0000858320130140041
929,0.0000319480895996094,0.0000921320468221929
930,0.0000324249267578125,0.0000917462449635322
931,0.0000452995300292969,0.0000768876814679961
932,-0.0000596046447753906,0.000101574149747424
933,0.0000748634338378906,0.000104849974762421
934,-0.0000162124633789062,0.0000828956405322099
935,0.0000233650207519531,0.0000917363312734104
936,-0.0000705718994140625,0.0000993012666415796
937,-0.0000238418579101562,0.000104815272026867
938,-0.000026702880859375,0.0000964626367763127
939,-0.0000357627868652344,0.000112037454123695
940,0.0000424385070800781,0.0000883578096153295
941,-0.0000386238098144531,0.0000867004827561718
942,0.0000662803649902344,0.000101947293757658
943,-0.0000524520874023438,0.0000976550392731478
944,0.0000920295715332031,0.000101159179697139
945,-0.0000362396240234375,0.0000979642184325886
946,0.0000567436218261719,0.0000888453967107314
947,0.0000109672546386719,0.0000957695114325488
948,-0.000116825103759766,0.0000990903870228618
949,0.000239849090576172,0.0000985127566118624
950,-0.0000748634338378906,0.000112211850527007
951,0.0000324249267578125,0.000116350220835799
952,-0.000095367431640625,0.0000784958548640382
953,-0.0000243186950683594,0.0000664088835088871
954,0.000107765197753906,0.0000694416367088224
955,0.0000782012939453125,0.0000996486987067911
956,0.000263214111328125,0.000156292062179169
957,-0.000155925750732422,0.000152319433567183
958,0.0000438690185546875,0.000113679418618726
959,0.0000500679016113281,0.000126540759122957
960,-0.000034332275390625,0.000107346624872247
961,-0.0000252723693847656,0.000121251729283171
962,0.0000853538513183594,0.0000971297510626409
963,0.000178337097167969,0.000136907911783207
964,0.0000405311584472656,0.000109042555837748
965,0.00000524520874023438,0.000140546488493332
966,0.0000634193420410156,0.000115114455238391
967,0.0000638961791992188,0.000125772975427699
968,-0.0000720024108886719,0.000125291175078697
969,-0.00002288818359375,0.000133722007656023
970,0.0002593994140625,0.000133626754356708
971,0.000104427337646484,0.000177823822338969
972,-0.0000271797180175781,0.000141562022657437
973,0.000112056732177734,0.000145325071718094
974,0.000140190124511719,0.000138437250607483
975,0.000072479248046875,0.00017009925028495
976,0.000211715698242187,0.000136897946751341
977,0.000123977661132812,0.000163498832639594
978,-0.000189304351806641,0.000153458614333007
979,-0.0000553131103515625,0.000128257672951629
980,-0.000121593475341797,0.000184968569468691
981,-0.00000286102294921875,0.000158743093399437
982,-0.0000410079956054688,0.000157797800824787
983,0.000186920166015625,0.000123208668799285
984,0.0000205039978027344,0.0001410406612193
985,0.000233650207519531,0.000161266862675495
986,-0.000287532806396484,0.000174483310511771
987,0.0001678466796875,0.000217060967312515
988,0.00000286102294921875,0.000203778578593405
989,-0.0000100135803222656,0.000175159625112661
990,0.000209808349609375,0.000190157014998364
991,-0.0001678466796875,0.000179584749143317
992,0.000151157379150391,0.000228097685015921
993,0.000246047973632812,0.000173317024582573
994,-0.00000762939453125,0.000200711629758542
995,-0.0000634193420410156,0.000186710824321881
996,0.000226974487304687,0.000161661158771812
997,0.0000147819519042969,0.000217291297450772
998,0.000385284423828125,0.000172470095135897
999,-0.00002288818359375,0.000157428493683044
1000,0.000321865081787109,0.000241126890443475
1001,0.000137805938720703,0.000227614709963555
1002,0.000377655029296875,0.000186364652419134
1003,0.0000844001770019531,0.000204438057917975
1004,-0.0000777244567871094,0.000219664134322973
1005,0.000141620635986328,0.000233473029397527
1006,0.0000233650207519531,0.000351449365426057
1007,0.0000643730163574219,0.000311750868212833
1008,0.000287055969238281,0.000317417427156111
1009,-0.0000309944152832031,0.000263483490138815
1010,-0.000183582305908203,0.00027725528343721
1011,0.0000171661376953125,0.000330505600045954
1012,0.0000562667846679688,0.000323547276567218
1013,0.0000276565551757812,0.000282390678761623
1014,-0.00026702880859375,0.00020869131100527
1015,0.000525951385498047,0.000202187951805466
1016,0.000497341156005859,0.00026037230088885
1017,0.000151157379150391,0.000249038677123252
1018,0.000299453735351562,0.000320848696902877
1019,0.000371932983398437,0.000322826855894543
1020,0.000300407409667969,0.000307325895084868
1021,0.000195503234863281,0.000364687851771428
1022,0.000695228576660156,0.000344597252226829
1023,0.000425338745117188,0.000300163593955752
1024,0.000158309936523437,0.000331236777612449
1025,0.000406742095947266,0.000384215960150236
1026,0.000140190124511719,0.000364198719529001
1027,0.000151157379150391,0.000324647322521308
1028,0.000583648681640625,0.000314168749265749
1029,0.000292778015136719,0.00032008242558022
1030,0.000124931335449219,0.000407217816389281
1031,0.00000762939453125,0.000483865440085562
1032,0.000514984130859375,0.000563711072129905
1033,0.000208377838134766,0.000640346677437247
1034,0.000241279602050781,0.000477340432653435
1035,0,0.000592335401669656
1036,0.000918865203857422,0.000468540492524544
1037,0.000298023223876953,0.000282706130837302
1038,0.000668048858642578,0.00040101523061934
1039,0.0012059211730957,0.00047192137757527
1040,-0.000280380249023437,0.000613526194397733
1041,0.0000214576721191406,0.000625854537573988
1042,0.0000605583190917969,0.000668758971998602
1043,0.000282764434814453,0.000715903942120087
1044,0.000871658325195313,0.000774693544473107
1045,-0.000244140625,0.00105338152632056
1046,0.00127363204956055,0.000706059141923247
1047,0.000344753265380859,0.00058481934271389
1048,0.000926971435546875,0.000756253510606909
1049,0.00119972229003906,0.00069042859084111
1050,0.000507831573486328,0.000771097436275773
1051,0.0000886917114257813,0.000657744965575067
1052,0.00100612640380859,0.000783416604796963
1053,0.00100946426391602,0.000979805568184738
1054,0.000263214111328125,0.000934032345141778
1055,0.000796318054199219,0.00121172944444798
1056,0.00141191482543945,0.00117418339981299
1057,0.0000605583190917969,0.00113984788425891
1058,-0.000276565551757812,0.00106300767697752
1059,0.00223350524902344,0.000808931717754472
1060,0.00236082077026367,0.000871990065604319
1061,-0.000173568725585937,0.000965231485489859
1062,0.00308513641357422,0.000916305846781691
1063,0.000313758850097656,0.00104193621863197
1064,-0.0000205039978027344,0.000890909459045105
1065,0.000992298126220703,0.00108358891464728
1066,0.00101041793823242,0.00131619770707391
1067,-0.000611782073974609,0.00120686797083927
1068,0.001556396484375,0.00141240679509352
1069,0.00165367126464844,0.00140023814053511
1070,-0.000647068023681641,0.00169276304645635
1071,-0.00123023986816406,0.00165728292330033
1072,0.000445842742919922,0.00143943040744448
1073,-0.000328540802001953,0.00105735261061056
1074,-0.000908374786376953,0.00111064699615954
1075,-0.000216960906982422,0.00098481269596822
1076,-0.000125408172607422,0.00120259201022459
1077,0.00190973281860352,0.00154472160970405
1078,0.00111579895019531,0.00211184066141124
1079,0.00122451782226562,0.00215743305742832
1080,-0.0000333786010742187,0.00158794076425143
1081,0.000390529632568359,0.00161516282362484
1082,-0.000223159790039062,0.00201849038474278
1083,-0.00137710571289062,0.00152732780331143
1084,0.00352573394775391,0.00246923795235775
1085,0.000674247741699219,0.00186588226170793
1086,0.000357151031494141,0.00228046163235711
1087,0.00269126892089844,0.00238789079798119
1088,-0.000585079193115234,0.00232389904676419
1089,0.00105142593383789,0.00240866643156895
1090,0.00383186340332031,0.00249092429084707
1091,-0.00269460678100586,0.00245917529636779
1092,0.00295400619506836,0.00212508427228439
1093,0.00104570388793945,0.00236457080179554
1094,-0.000571727752685547,0.00278847846960751
1095,0.000326633453369141,0.00339733434728018
1096,-0.000850200653076172,0.00280985535682937
1097,-0.00106334686279297,0.00320870239542001
1098,0.00365400314331055,0.0032533799440743
1099,-0.00125932693481445,0.00363075823794353
1100,0.00303316116333008,0.00243472137778176
