Wavelength (nm),Absorbance (AU),Std.Dev.
190,1.03895235061646,0.892866559660163
191,1.50241374969482,1.67996000696445
192,1.16726446151733,0.803776790474974
193,0.663533687591553,0.368990751651972
194,1.35430812835693,0.692001862098967
195,1.40119314193726,0.481063846403371
196,1.5604190826416,0.725806057837595
197,1.326584815979,0.366063772513581
198,0.961239814758301,0.458797335560253
199,1.66649103164673,0.95105756820861
200,1.67279243469238,0.480817962524215
201,2.07810258865356,0.294105866140148
202,2.11182355880737,0.909762186688436
203,3.32265138626099,1.97324016729148
204,3.86678314208984,1.5562766689482
205,3.13421058654785,0.61209828184747
206,3.26749467849731,0.239307631930524
207,3.81617116928101,0.622651838911602
208,3.99999952316284,0.981503127183951
209,3.53879308700562,0.396662329214621
210,3.88008069992065,0.451632442139588
211,3.87117147445679,0.544680305998103
212,3.72084331512451,1.36173017959919
213,3.99999952316284,1.99486645856308
214,3.93696260452271,0.957899797204475
215,3.54118251800537,0.642883784635198
216,3.99999952316284,0.410686041767119
217,3.91218376159668,0.272669121293613
218,3.60560083389282,0.204365390936664
219,3.55778121948242,0.216413829684498
220,3.81157732009888,0.207698107907415
221,3.66713428497314,0.142417503704173
222,3.41978931427002,0.241797348293156
223,3.78451490402222,0.197217274396318
224,3.55348300933838,0.115302631400421
225,3.46009969711304,0.0822228510148116
226,3.35895967483521,0.0519795974173373
227,3.15769720077515,0.0306038818726988
228,3.04363346099854,0.0337673933633205
229,2.85101079940796,0.0334837776874877
230,2.76982879638672,0.0188384196522074
231,2.67131900787354,0.0105371854565466
232,2.52622318267822,0.00790140114865226
233,2.41940212249756,0.0120525503482966
234,2.33328056335449,0.00776371026179582
235,2.25578927993774,0.00628736176803344
236,2.20104789733887,0.00839849072816526
237,2.14878749847412,0.00532004633838507
238,2.11940431594849,0.00442704780414761
239,2.09520578384399,0.0027574958133147
240,2.09108734130859,0.00355434814342362
241,2.10571241378784,0.00443482470124014
242,2.132004737854,0.00611601503324314
243,2.1618766784668,0.00407338225426357
244,2.20189619064331,0.00372527014917647
245,2.26574802398682,0.00554160902404444
246,2.35507535934448,0.00841665731246982
247,2.39929580688477,0.0155478000844876
248,2.52274417877197,0.02239649276354
249,2.64040184020996,0.0187559754069031
250,2.72175312042236,0.0374180852766938
251,2.92278528213501,0.073269851546389
252,3.02607250213623,0.0646691603163402
253,3.11746883392334,0.0809663958131802
254,3.35206270217895,0.100694912145705
255,3.25112438201904,0.152487662394756
256,3.2385892868042,0.221531217489242
257,3.57747554779053,0.161753067577111
258,3.36105251312256,0.0863636892948262
259,3.22073602676392,0.0843610964022021
260,3.37116527557373,0.131375788402279
261,3.36200475692749,0.243103264864327
262,3.366623878479,0.179772398421935
263,3.4487476348877,0.234240684169333
264,3.35807371139526,0.144880542876197
265,3.21994113922119,0.0742990160131181
266,3.13181495666504,0.0826725190562408
267,3.10030174255371,0.0662804702648178
268,3.27511930465698,0.112569744955064
269,3.13420963287354,0.0891056424770072
270,3.05357646942139,0.0921261340709433
271,3.10424852371216,0.0864657724389645
272,3.00803375244141,0.0613585184191468
273,2.91827774047852,0.0615873458993547
274,2.8799786567688,0.0494744817289296
275,2.77316188812256,0.0216924818621686
276,2.67814540863037,0.0195110216293055
277,2.3860445022583,0.01767323512502
278,2.11526489257812,0.00853510701669421
279,1.86188793182373,0.00289402555509052
280,1.63498210906982,0.00138275277822378
281,1.4348578453064,0.000816398690156751
282,1.27701902389526,0.000660746971753532
283,1.14836454391479,0.000517141274766312
284,1.04091739654541,0.000604963360868595
285,0.952532291412354,0.000566800346239004
286,0.880722045898438,0.000291743298416121
287,0.820343494415283,0.000279099269467779
288,0.771411895751953,0.00028816749339694
289,0.730453491210938,0.000370035466328996
290,0.696493625640869,0.000276894209689292
291,0.667622089385986,0.000356924000127111
292,0.642941474914551,0.000281506824703912
293,0.622361660003662,0.000195314735161389
294,0.605712890625,0.00021279976786001
295,0.590758323669434,0.000313786386597534
296,0.578757286071777,0.000318212982319375
297,0.56901216506958,0.000182408755737385
298,0.560378551483154,0.000148626401815629
299,0.55340051651001,0.000218155996375011
300,0.54790735244751,0.000180846425111901
301,0.543046474456787,0.000210457577616824
302,0.539646625518799,0.00032300148022846
303,0.537105560302734,0.000360655367724864
304,0.535363674163818,0.000277432365850921
305,0.534772872924805,0.000294671474981317
306,0.534529209136963,0.000310476286456002
307,0.534815311431885,0.000314868541538947
308,0.535924434661865,0.000213916610914167
309,0.536959171295166,0.000261633731071201
310,0.53796911239624,0.00031238038597617
311,0.539146423339844,0.000222719197723716
312,0.541477203369141,0.000370035466328996
313,0.542747020721436,0.000379298708019483
314,0.54559326171875,0.000215787649649766
315,0.547592639923096,0.00022556363316497
316,0.549317359924316,0.000196480055251045
317,0.55137300491333,0.000159697028564763
318,0.553376197814941,0.000238025340987557
319,0.55499267578125,0.000377500868649857
320,0.556177139282227,0.000456912520975039
321,0.557504653930664,0.000346287535784003
322,0.55803108215332,0.000308017612012925
323,0.558098316192627,0.000298486349747649
324,0.558321475982666,0.000228722834990254
325,0.557806491851807,0.000276058653280344
326,0.556766510009766,0.000445266851482214
327,0.555554389953613,0.000261160538128094
328,0.553909778594971,0.000225164101613979
329,0.551436424255371,0.000269267372002881
330,0.548198223114014,0.000305693901832805
331,0.544954776763916,0.000346550077737275
332,0.541306972503662,0.000286971995595624
333,0.536903381347656,0.000243244912215116
334,0.531943798065186,0.000244616997404196
335,0.527220249176025,0.000390536328026617
336,0.521858215332031,0.000397863964005506
337,0.515866756439209,0.000264894951313129
338,0.509140968322754,0.000271849041725847
339,0.502418518066406,0.000294442987608472
340,0.495203495025635,0.000345856535542088
341,0.487315177917481,0.000272850871921504
342,0.479067325592041,0.000310751523657475
343,0.470524787902832,0.000213141409288664
344,0.462062358856201,0.000195942362292186
345,0.453304767608643,0.000270413339209706
346,0.44390869140625,0.00022195015437442
347,0.434380054473877,0.000288394645386718
348,0.425434589385986,0.000247779196762924
349,0.415359020233154,0.000179001392015426
350,0.405094146728516,0.000208412206857639
351,0.395455837249756,0.000231524941924392
352,0.385423183441162,0.000169182468830242
353,0.374992370605469,0.000159232199306628
354,0.364390850067139,0.000256479887690697
355,0.354392528533936,0.000228854018746221
356,0.344061851501465,0.000247161769148637
357,0.3333420753479,0.000279815260281186
358,0.322996616363525,0.000240726742216489
359,0.31267786026001,0.000225749033484408
360,0.302464008331299,0.000313537020661408
361,0.292322635650635,0.000391085546917487
362,0.28211784362793,0.000385463786157973
363,0.272537708282471,0.000303795793843677
364,0.262787342071533,0.000238807361234887
365,0.254677295684814,0.000238807361234887
366,0.246908664703369,0.000176391081825731
367,0.240121841430664,0.00020906577045945
368,0.232623100280762,0.000160642468445007
369,0.224649429321289,0.000195728730206067
370,0.217074394226074,0.000248292546938035
371,0.209277153015137,0.000285599584792771
372,0.201608657836914,0.000266490120442086
373,0.194490432739258,0.000252001107252712
374,0.187113285064697,0.000199857920314566
375,0.180604457855225,0.000150184781532513
376,0.17348051071167,0.000171661376953125
377,0.166483879089355,0.000193447845682367
378,0.159923076629639,0.000150915759024025
379,0.15334415435791,0.000129334552827184
380,0.147120475769043,0.000209804014681336
381,0.141483306884766,0.000200053504985081
382,0.135851383209229,0.000181979452359204
383,0.129830837249756,0.000181248306552194
384,0.124545574188232,0.000227858321211689
385,0.119571685791016,0.000212970657080772
386,0.114173889160156,0.000148363037082383
387,0.109200000762939,0.0000960918568857406
388,0.104308128356934,0.000100681543485438
389,0.0999646186828613,0.000107990720960106
390,0.0955142974853516,0.000154038330536766
391,0.0913767814636231,0.000240707850871437
392,0.0869388580322266,0.00019850175933631
393,0.0828037261962891,0.000178635190000193
394,0.0790705680847168,0.000134102344267936
395,0.0755615234375,0.000146865844726562
396,0.0719738006591797,0.000137299296005651
397,0.0687408447265625,0.00016940273411324
398,0.0651111602783203,0.000179610069516956
399,0.0619058609008789,0.000159317852537244
400,0.059229850769043,0.000156910583045552
401,0.0562796592712402,0.000183705499111993
402,0.0536160469055176,0.00022906058007715
403,0.0507297515869141,0.000215167186854895
404,0.0482583045959473,0.000163128493768483
405,0.0456533432006836,0.000193654601114729
406,0.0434322357177734,0.000147023673525855
407,0.0412793159484863,0.000142091072501608
408,0.038752555847168,0.000132762974207267
409,0.0367598533630371,0.000186418326767364
410,0.0350794792175293,0.000203622308366309
411,0.033144474029541,0.000173101740154774
412,0.0317296981811523,0.000203439096288985
413,0.0293879508972168,0.000207300807183115
414,0.0278630256652832,0.000198483431303462
415,0.026451587677002,0.000171306030388324
416,0.0251908302307129,0.000184491001729488
417,0.0236678123474121,0.000161661158771812
418,0.0220069885253906,0.000174696892395636
419,0.0208592414855957,0.000130482722293755
420,0.019676685333252,0.000118760216772047
421,0.018519401550293,0.00017315952566362
422,0.0173816680908203,0.000168940383675237
423,0.0163459777832031,0.000146204835678472
424,0.0155978202819824,0.000198267950007129
425,0.0143885612487793,0.000219432150108553
426,0.0136404037475586,0.000232837196734716
427,0.0128073692321777,0.000195756608482321
428,0.0118675231933594,0.000155364054353166
429,0.0113239288330078,0.000145753138024579
430,0.0101218223571777,0.000147604016141061
431,0.00965356826782227,0.000172401527991893
432,0.00933265686035156,0.000156114475701035
433,0.00879621505737305,0.000162497260520211
434,0.00777816772460938,0.000124241474872484
435,0.00735044479370117,0.000131236813308896
436,0.00672769546508789,0.000140303611233543
437,0.00653076171875,0.0001795644902737
438,0.00594186782836914,0.000144911432155076
439,0.0052647590637207,0.000172253752210627
440,0.00503206253051758,0.000173731088677405
441,0.00452518463134766,0.000159095058220991
442,0.00424575805664063,0.000139442056888169
443,0.00367164611816406,0.000146552780193239
444,0.0036163330078125,0.00015294510037788
445,0.00352287292480469,0.000133125556369719
446,0.00289249420166016,0.000164505364202063
447,0.0025029182434082,0.000191139745134858
448,0.00248861312866211,0.000141053557544589
449,0.00214099884033203,0.000116107644955142
450,0.00188636779785156,0.000158680058036867
451,0.00167083740234375,0.000136328735895004
452,0.00137805938720703,0.00011483561480811
453,0.00153875350952148,0.000127610746550768
454,0.00123834609985352,0.000130021873223528
455,0.000893115997314453,0.000170184778338014
456,0.000696182250976563,0.000161328887309855
457,0.000648975372314453,0.000114148481570934
458,0.000518321990966797,0.000104177734071424
459,0.000214576721191406,0.000172451637432855
460,0.000170707702636719,0.000156780112929272
461,0.0000958442687988281,0.000111032430769267
462,-0.0000219345092773437,0.000107942283765043
463,-0.000299930572509766,0.0000835921515079102
464,-0.000148296356201172,0.0000935111587469422
465,-0.000400066375732422,0.000114395211947265
466,-0.000340461730957031,0.000101147940662396
467,-0.000452041625976563,0.000125906682316318
468,-0.000596046447753906,0.000149340647771716
469,-0.000529766082763672,0.000142573512913952
470,-0.000860214233398438,0.000104700237060234
471,-0.0008087158203125,0.000082415616278201
472,-0.000883579254150391,0.000101154684233091
473,-0.00112724304199219,0.000120346368363914
474,-0.000936508178710938,0.000126612612379058
475,-0.00100183486938477,0.000112791896377354
476,-0.00101089477539062,0.0000914931103150288
477,-0.00115156173706055,0.000123378332066751
478,-0.00124979019165039,0.000108093840868371
479,-0.00118875503540039,0.0000903754234804561
480,-0.00125551223754883,0.0000787359083326009
481,-0.00114583969116211,0.000112610322026091
482,-0.00131464004516602,0.000135606317607797
483,-0.00134086608886719,0.0000967803243754044
484,-0.00132226943969727,0.0000769157699133114
485,-0.00143098831176758,0.0000775560649477219
486,-0.00136327743530273,0.0000740833704541629
487,-0.00108575820922852,0.0000839951056629376
488,-0.00128841400146484,0.0000939744303213121
489,-0.00128316879272461,0.000108620532215366
490,-0.00123786926269531,0.0000904232125559506
491,-0.00148153305053711,0.0000813227564949802
492,-0.00141191482543945,0.0000777434694404102
493,-0.00146722793579102,0.0000800646365867668
494,-0.00147771835327148,0.0000964225574690578
495,-0.00147581100463867,0.0000937879416993298
496,-0.00133895874023437,0.000104452374039406
497,-0.00150442123413086,0.000090178971361968
498,-0.00131130218505859,0.0000770870352764255
499,-0.00132179260253906,0.0000748117839717458
500,-0.00141191482543945,0.0000886096369499711
501,-0.00139379501342773,0.0000880123080881307
502,-0.00137853622436523,0.000106788104759752
503,-0.00137805938720703,0.0000847375989186457
504,-0.0013580322265625,0.000070444520486327
505,-0.0012049674987793,0.0000743009612304018
506,-0.00136613845825195,0.000093301814226839
507,-0.00124406814575195,0.0000880562154533404
508,-0.00121068954467773,0.0000666975708706609
509,-0.00133132934570312,0.0000503396425574797
510,-0.00118923187255859,0.0000765275359487768
511,-0.00125694274902344,0.0000967779749677457
512,-0.00126218795776367,0.0000860687768353919
513,-0.00123834609985352,0.0000787777703260734
514,-0.00112247467041016,0.0000877769010962985
515,-0.00113534927368164,0.0000829367736863972
516,-0.00105428695678711,0.000115483226312081
517,-0.00116968154907227,0.000101253538336867
518,-0.00103282928466797,0.0000783610456733441
519,-0.00113248825073242,0.000107206737410969
520,-0.000981330871582031,0.000108925723004159
521,-0.000998020172119141,0.000110373125274668
522,-0.00116109848022461,0.000130917636913102
523,-0.00109624862670898,0.000114255994161784
524,-0.00116586685180664,0.0000877846718289817
525,-0.00101566314697266,0.0000835962314625949
526,-0.000955581665039063,0.0000912915916155274
527,-0.00105905532836914,0.0000850897170470019
528,-0.000926017761230469,0.0000915651511673177
529,-0.000981807708740234,0.000108936159601544
530,-0.000975608825683594,0.0000912866102174599
531,-0.000795364379882813,0.0000880148914806518
532,-0.00107240676879883,0.0000855028992872536
533,-0.000974655151367188,0.0000977155572391781
534,-0.000866889953613281,0.000101594294244658
535,-0.000852108001708984,0.000103766602403132
536,-0.000823020935058594,0.0000945605475897879
537,-0.000874996185302734,0.000111224758635456
538,-0.000876426696777344,0.0000897417159642007
539,-0.000832557678222656,0.0000763118246109478
540,-0.000828266143798828,0.0000722136776953683
541,-0.000700473785400391,0.0000638124999785531
542,-0.000790596008300781,0.000085478962677189
543,-0.000732898712158203,0.0000943752171624642
544,-0.000658988952636719,0.0000710311330198619
545,-0.000639438629150391,0.0000678936412505666
546,-0.000652313232421875,0.0000742397325745718
547,-0.000697135925292969,0.0000631750751883609
548,-0.000811100006103516,0.0000737079819357482
549,-0.000691413879394531,0.0000783987576086602
550,-0.000673294067382813,0.000090701898132768
551,-0.000787258148193359,0.0000711239026717532
552,-0.000623703002929688,0.0000623764245062555
553,-0.000717639923095703,0.0000791736373946181
554,-0.000647544860839844,0.0000769852078265902
555,-0.000589370727539063,0.0000829271777753262
556,-0.000627517700195313,0.0000826250240858243
557,-0.000716686248779297,0.0000799466948454359
558,-0.000612735748291016,0.0000528934720876901
559,-0.000621318817138672,0.0000511161871754526
560,-0.000688552856445313,0.0000545171073935165
561,-0.000612735748291016,0.0000511050655314978
562,-0.000611305236816406,0.0000723426560728653
563,-0.000617504119873047,0.0000813045808436467
564,-0.000684738159179688,0.0000795846788216593
565,-0.000504970550537109,0.0000686546159550703
566,-0.000536441802978516,0.000072620279731149
567,-0.000596046447753906,0.0000540626942630963
568,-0.000463485717773438,0.00004264161444551
569,-0.000535964965820313,0.0000525116582192735
570,-0.000508785247802734,0.0000695773880212663
571,-0.000402450561523438,0.0000684821833011485
572,-0.000348567962646484,0.0000574643183937829
573,-0.000469684600830078,0.0000609634022341056
574,-0.00048065185546875,0.0000695414315570373
575,-0.000376224517822266,0.0000658311647622006
576,-0.000347614288330078,0.0000672661589606566
577,-0.000357627868652344,0.0000797502128492338
578,-0.000401973724365234,0.0000664431131299986
579,-0.000286102294921875,0.00005550699946037
580,-0.000416755676269531,0.0000603806525212713
581,-0.000432014465332031,0.0000649672035511205
582,-0.000410079956054688,0.0000606052337105466
583,-0.000163555145263672,0.0000854709823174837
584,-0.000304698944091797,0.0000711670472936597
585,-0.000426292419433594,0.0000654536079425831
586,-0.000319957733154297,0.0000517011114823525
587,-0.000349521636962891,0.0000637340624140133
588,-0.000350475311279297,0.0000850362569738409
589,-0.0003509521484375,0.0000592785498062953
590,-0.000396728515625,0.0000640223808305748
591,-0.000395774841308594,0.0000652378759383414
592,-0.000401020050048828,0.000050966955521212
593,-0.000339031219482422,0.0000525744052322577
594,-0.000352859497070312,0.0000540553337157489
595,-0.000308513641357422,0.0000756910463670778
596,-0.000370025634765625,0.0000692268369732216
597,-0.000334262847900391,0.0000547304376036693
598,-0.000410079956054688,0.0000817633218832375
599,-0.000366687774658203,0.0000749575272662973
600,-0.000298023223876953,0.0000718475090284117
601,-0.000287055969238281,0.0000693630086745002
602,-0.000285625457763672,0.0000468830600591485
603,-0.000280857086181641,0.0000549056816355474
604,-0.000324249267578125,0.0000630832312711346
605,-0.000210762023925781,0.0000564352439418053
606,-0.000312328338623047,0.0000512849392189324
607,-0.000405311584472656,0.0000482289612140285
608,-0.00031280517578125,0.0000553254409726375
609,-0.000263690948486328,0.0000636483839179917
610,-0.000291824340820312,0.0000693875895064128
611,-0.000253677368164062,0.0000421212154321731
612,-0.000311374664306641,0.000059242099619308
613,-0.000333786010742187,0.0000608411327657188
614,-0.000309944152832031,0.0000606089853112627
615,-0.000348567962646484,0.0000709318312903864
616,-0.000346183776855469,0.0000515943534241068
617,-0.000270843505859375,0.0000472850826103859
618,-0.000291824340820312,0.0000602760645688436
619,-0.000288009643554687,0.0000531625317847013
620,-0.000281810760498047,0.000056351581621461
621,-0.000269889831542969,0.0000713935268943266
622,-0.000302791595458984,0.000074251982344901
623,-0.00019073486328125,0.0000645617086067688
624,-0.000320911407470703,0.0000591893030135456
625,-0.000360965728759766,0.0000637090847551363
626,-0.000131130218505859,0.0000591662497300953
627,-0.000169277191162109,0.0000718031899756222
628,-0.000324726104736328,0.0000766032624360016
629,-0.000352382659912109,0.0000746261578310922
630,-0.000307559967041016,0.000058162406614964
631,-0.000354290008544922,0.0000595111113045605
632,-0.000279426574707031,0.0000750181700716262
633,-0.000315666198730469,0.0000704138506738207
634,-0.000256061553955078,0.0000494958348355001
635,-0.000154495239257812,0.0000562607228521393
636,-0.000236988067626953,0.000059267041642761
637,-0.000189304351806641,0.0000524249873812104
638,-0.000241279602050781,0.0000498448808963187
639,-0.000290393829345703,0.0000458123641736459
640,-0.000294208526611328,0.0000535503202109011
641,-0.000193595886230469,0.0000653388715094019
642,-0.000243186950683594,0.0000673235979897494
643,-0.000254154205322266,0.0000970993142402615
644,-0.000138282775878906,0.0000950258814563302
645,-0.000216007232666016,0.0000993218721268385
646,-0.000217437744140625,0.000095367431640625
647,-0.000132560729980469,0.0000831147821227745
648,-0.000211715698242187,0.0000969376049772115
649,-0.000207901000976562,0.0000675040430608257
650,-0.000349998474121094,0.0000658881293196098
651,-0.000293731689453125,0.0000700577487371498
652,-0.000159740447998047,0.0000528880984277431
653,-0.000353336334228516,0.0000637215748084213
654,-0.000276565551757812,0.0000787647810538986
655,-0.000161170959472656,0.0000867843627929688
656,-0.000377178192138672,0.0000498790813538085
657,0.000568389892578125,0.0000483784138658442
658,0.00000333786010742187,0.0000523761720081049
659,-0.000116348266601562,0.0000657361141367409
660,-0.000155448913574219,0.0000589574004119789
661,-0.000220298767089844,0.0000698025106358863
662,-0.000283241271972656,0.0000894676638250018
663,-0.000151634216308594,0.000052924628555949
664,-0.000138282775878906,0.0000552719884141621
665,-0.000177383422851562,0.0000640046210086484
666,-0.000172138214111328,0.000063378098349352
667,-0.000218868255615234,0.0000718348492319999
668,-0.000159263610839844,0.0000844917231916308
669,-0.000213146209716797,0.0000654831287064379
670,-0.000112056732177734,0.0000574494785519959
671,-0.000128269195556641,0.0000438119683202178
672,-0.000153541564941406,0.0000658225294680384
673,-0.000165462493896484,0.0000647463393107817
674,-0.000161647796630859,0.00004503019473201
675,-0.0000820159912109375,0.000060128768598923
676,-0.000185966491699219,0.0000598891145641615
677,-0.000157833099365234,0.0000624911423782404
678,-0.0000853538513183594,0.0000739605021874059
679,-0.000158309936523437,0.0000629822287775101
680,-0.000101566314697266,0.0000675764226457858
681,-0.000109195709228516,0.0000759145123002457
682,-0.000141620635986328,0.0000664773251260508
683,-0.000130653381347656,0.0000581790187222651
684,-0.000111579895019531,0.0000497615615954174
685,-0.000172615051269531,0.0000450630036214133
686,-0.0000762939453125,0.0000527729709573606
687,-0.0000920295715332031,0.0000763118246109478
688,-0.0000925064086914063,0.0000742152269681691
689,-0.00020599365234375,0.0000760237558667783
690,-0.000095367431640625,0.000056790684969672
691,-0.0001068115234375,0.000056780674801796
692,-0.0000863075256347656,0.0000608215094569649
693,-0.0000462532043457031,0.0000491709058064381
694,-0.000113487243652344,0.0000488601054574815
695,-0.000186920166015625,0.000047796830480858
696,-0.0000882148742675781,0.0000510494209672608
697,-0.000108718872070312,0.0000432714942805887
698,-0.0000448226928710938,0.0000387992817161707
699,-0.000080108642578125,0.0000580499057441648
700,-0.000177383422851562,0.0000670850740332594
701,-0.000193119049072266,0.0000562374798384284
702,-0.00016021728515625,0.0000444674619074674
703,-0.000115871429443359,0.0000599213767845983
704,-0.000209331512451172,0.0000523370869275757
705,-0.000187397003173828,0.0000441132361234233
706,-0.000120162963867187,0.0000345130966768882
707,-0.000147342681884766,0.0000380611945381079
708,-0.000123977661132812,0.0000407158626048449
709,-0.00006866455078125,0.0000406718616769429
710,-0.000195503234863281,0.0000506739045625867
711,-0.000163555145263672,0.0000598587342371368
712,-0.0000939369201660156,0.0000741968424518964
713,-0.000110149383544922,0.0000685402619511526
714,-0.000138282775878906,0.0000482855016334603
715,-0.000147819519042969,0.00004212593848706
716,-0.000100135803222656,0.0000609652670430697
717,-0.000132083892822266,0.0000515050353984558
718,-0.000123977661132812,0.0000573464833688448
719,-0.0000910758972167969,0.0000696851460961452
720,-0.0000944137573242188,0.0000522936247983992
721,-0.0000672340393066406,0.0000383890932086877
722,-0.000124931335449219,0.0000513912339520162
723,-0.0000700950622558594,0.0000355731386115888
724,-0.0000715255737304688,0.0000395580899162129
725,-0.000113487243652344,0.0000388695411588742
726,-0.0000791549682617188,0.000045376010379673
727,-0.0000338554382324219,0.0000547563966238848
728,-0.0000519752502441406,0.0000578792713079809
729,-0.000113010406494141,0.0000520561184101585
730,-0.0000338554382324219,0.0000616449206154306
731,0.00000667572021484375,0.0000539184552284018
732,-0.00006866455078125,0.0000508463605052247
733,-0.000102519989013672,0.0000522773171843193
734,-0.0000457763671875,0.0000534419380004359
735,-0.0000538825988769531,0.0000501948971269636
736,-0.00005340576171875,0.0000522903636824472
737,-0.00000810623168945313,0.0000657326551604888
738,-0.00000476837158203125,0.0000524986667153094
739,-0.000113964080810547,0.0000486081633922569
740,-0.0000824928283691406,0.0000394357591103918
741,-0.0000338554382324219,0.0000413668258558203
742,-0.00000762939453125,0.0000344718968332929
743,-0.0000481605529785156,0.000056409049814638
744,-0.0000519752502441406,0.0000516483103334465
745,-0.0000438690185546875,0.0000498859186316758
746,-0.0000300407409667969,0.000050388174672604
747,-0.0000586509704589844,0.0000607270420983418
748,-0.0000977516174316406,0.0000625420605564761
749,-0.0000581741333007813,0.0000462359956799599
750,-0.0000581741333007813,0.0000363343969681935
751,-0.0000429153442382813,0.0000461794077699365
752,-0.0000867843627929688,0.0000401903295625791
753,-0.0000119209289550781,0.0000420435464288462
754,-0.0000548362731933594,0.0000517472682921035
755,-0.0000443458557128906,0.0000449265636000526
756,-0.0000438690185546875,0.0000524759238441114
757,0.00000619888305664063,0.0000392443064738662
758,-0.0000057220458984375,0.0000410876221841461
759,0.0000205039978027344,0.0000553511209440227
760,-0.00000810623168945313,0.0000498688236793325
761,0.000030517578125,0.0000431214786130387
762,0.0000138282775878906,0.0000630814290733177
763,0.0000262260437011719,0.0000570244212539802
764,-0.0000448226928710938,0.000047259830870189
765,0.000080108642578125,0.000043342373106603
766,0.0000433921813964844,0.0000522849280371885
767,-0.0000209808349609375,0.0000618805306064797
768,0.0000281333923339844,0.0000484605923077238
769,0.00000238418579101562,0.0000524770070614808
770,0.00000762939453125,0.0000411746884326233
771,0.000101566314697266,0.0000479843675000087
772,0.0000057220458984375,0.0000638872823641878
773,0.0000133514404296875,0.0000493198092037236
774,0.0000596046447753906,0.0000404061465190647
775,0.0000214576721191406,0.0000408016324204864
776,0.0000152587890625,0.0000547408226889801
777,0.0000662803649902344,0.0000385892089047779
778,0.0000348091125488281,0.0000345739823454564
779,-0.00000905990600585938,0.0000510327157667195
780,0.0000247955322265625,0.0000486245325334491
781,-0.0000162124633789062,0.0000457092627773393
782,0.0000233650207519531,0.0000535205900867492
783,0.0000605583190917969,0.0000606783480860534
784,-0.0000777244567871094,0.0000403449042517049
785,-0.0000019073486328125,0.0000566784701054969
786,0.0000467300415039063,0.0000469387996762265
787,0.00000762939453125,0.0000446766136796245
788,0.0000500679016113281,0.0000609522121822062
789,-0.0000791549682617188,0.0000625566009950466
790,0.0000247955322265625,0.0000514597659443725
791,0.0000491142272949219,0.0000492679172707171
792,0.0000095367431640625,0.0000575819122828596
793,0.0000567436218261719,0.0000767367151149228
794,-0.0000157356262207031,0.0000510304879934666
795,-0.0000295639038085937,0.0000529858137385405
796,0.0000677108764648438,0.0000592977251156557
797,0.0000634193420410156,0.0000505053618733684
798,0,0.0000618180342875314
799,0.0000820159912109375,0.0000628629817874031
800,0.0000863075256347656,0.0000557879097069155
801,0.0000400543212890625,0.0000548673624559117
802,0.0000414848327636719,0.0000431168646105294
803,0.000114917755126953,0.0000595998762130585
804,0.000125408172607422,0.0000577593304405515
805,0.0000429153442382813,0.0000620035007430562
806,0.000100612640380859,0.0000646285882399745
807,0.0000624656677246094,0.0000610100053584937
808,0.000109195709228516,0.0000421711181080042
809,0.0000505447387695313,0.0000473127238144098
810,0.0000658035278320313,0.0000595569419708099
811,0.000108718872070312,0.000040511519217986
812,0.0000743865966796875,0.0000423533678588907
813,0.0000882148742675781,0.0000461128898763145
814,0.00006103515625,0.0000635536463987203
815,0.000147819519042969,0.0000561970343084826
816,0.000137805938720703,0.0000402715728959984
817,0.000118255615234375,0.0000518054550997691
818,0.0000100135803222656,0.0000515260004397091
819,0.0000972747802734375,0.0000520517503700073
820,0.000107765197753906,0.0000542914232785284
821,0.000140666961669922,0.0000570363819101812
822,0.000120162963867187,0.0000430687176993452
823,0.000102043151855469,0.000050765804675109
824,-0.00002288818359375,0.000055807265829672
825,0.0000834465026855469,0.0000551278200727567
826,0.0000424385070800781,0.00006262380660775
827,0.0000863075256347656,0.0000467117916204354
828,0.000106334686279297,0.0000531892560269686
829,0.0000739097595214844,0.0000420523335946977
830,0.0000538825988769531,0.0000440887463120034
831,0.0000977516174316406,0.0000341230214363381
832,0.0000529289245605469,0.0000442457607637865
833,0.0000405311584472656,0.0000604643806505262
834,0.0000910758972167969,0.0000671460543171663
835,-0.000026702880859375,0.0000613139164446245
836,0.0000634193420410156,0.000050945760424048
837,0.000112533569335937,0.0000533663655476387
838,0.0000758171081542969,0.0000667793373467281
839,0.0000214576721191406,0.0000531218851879897
840,0.000101566314697266,0.0000575335203781463
841,0.0000743865966796875,0.0000715319312766998
842,0.000140190124511719,0.0000571667896347659
843,0.0000658035278320313,0.0000481711744172374
844,0.000139713287353516,0.0000393361755234295
845,0.000115394592285156,0.0000534717118549485
846,0.0000939369201660156,0.0000615452521256417
847,0.000125408172607422,0.0000537061333539766
848,0.000125408172607422,0.0000486782780984665
849,0.000209331512451172,0.0000578183488453633
850,0.000064849853515625,0.0000484206944842067
851,0.0000891685485839844,0.0000561109907581611
852,0.000171661376953125,0.0000643924401260178
853,0.0000948905944824219,0.0000605714588478104
854,0.000147342681884766,0.0000412415904052341
855,0.0000448226928710938,0.0000607457601711281
856,0.000180721282958984,0.0000532106257570501
857,0.000134468078613281,0.0000519861857258085
858,0.000127315521240234,0.0000604559190312432
859,0.000158786773681641,0.0000620090011645124
860,0.000120162963867187,0.0000532736165177701
861,0.0000462532043457031,0.0000709366394131705
862,0.0000524520874023438,0.0000499610669323204
863,0.0000934600830078125,0.0000551484386245764
864,0.000104427337646484,0.0000650773545774999
865,0.0000548362731933594,0.0000650721135186134
866,0.0000753402709960938,0.0000643977365006652
867,0.000188350677490234,0.0000562091710232541
868,0.000108242034912109,0.000067767938559487
869,0.0000977516174316406,0.0000478942514787427
870,0.0000848770141601563,0.000049831194140975
871,0.0000452995300292969,0.0000612044222497627
872,0.0000281333923339844,0.0000546971920804171
873,0.000158309936523437,0.0000662906556408318
874,-0.000034332275390625,0.0000672069792706071
875,0.000132560729980469,0.0000769852078265902
876,0.0000753402709960938,0.0000609540773335151
877,-0.00000143051147460937,0.0000515425457644335
878,0.0000987052917480469,0.0000800049769539522
879,0.0000710487365722656,0.0000681710389563209
880,0.0000882148742675781,0.0000473451515929256
881,0.0000848770141601563,0.0000499895026976549
882,0.0000596046447753906,0.0000644489123492163
883,0.0000944137573242188,0.0000614620715873933
884,0.0000395774841308594,0.0000608392641518648
885,0.000212192535400391,0.000056220294043489
886,0.000130176544189453,0.0000730152762654327
887,0.000159263610839844,0.0000625020569084744
888,0.000142574310302734,0.0000644753666769613
889,0.000165462493896484,0.0000692038418432156
890,0.000080108642578125,0.0000690014837795629
891,0.00003814697265625,0.0000577534252829604
892,0.000185012817382812,0.0000683425931682057
893,0.000108718872070312,0.0000597836667016349
894,0.000252723693847656,0.0000480565752158527
895,0.0000820159912109375,0.0000554393692045994
896,0.0000748634338378906,0.0000669493634324661
897,0.0000925064086914063,0.0000721664328897253
898,0.000195026397705078,0.0000555530637930167
899,0.000155448913574219,0.000055110288238522
900,0.000172615051269531,0.0000676369599399458
901,0.000187397003173828,0.0000735721259554295
902,0.0001373291015625,0.0000620713052092959
903,0.000133514404296875,0.0000745758680897612
904,0.000171661376953125,0.0000788008570788076
905,0.000146865844726562,0.0000695561432662931
906,0.000270366668701172,0.0000631120594372782
907,0.000142574310302734,0.0000777595534391876
908,0.000207424163818359,0.0000800518561227162
909,0.0000934600830078125,0.0000784422488512711
910,0.000136852264404297,0.0000791894309155227
911,0.000108718872070312,0.0000510093192949546
912,0.000145435333251953,0.0000648603711294553
913,0.000172615051269531,0.0000747296784588374
914,0.000187397003173828,0.0000828613473059622
915,0.000194549560546875,0.0000938291463947208
916,0.000270843505859375,0.000086264046102105
917,0.0000939369201660156,0.0000910396903402944
918,0.000165939331054687,0.0000660621701615788
919,0.000179290771484375,0.0000751241771880163
920,0.000184535980224609,0.0000640277078165498
921,0.0000720024108886719,0.0000693728420524304
922,0.000353813171386719,0.0000709462546811798
923,0.000124931335449219,0.0000842383822073277
924,0.000298023223876953,0.00010033088935728
925,0.000147342681884766,0.0000914831691936527
926,0.000182151794433594,0.000117016654722917
927,0.000168800354003906,0.000084601985374325
928,0.000187397003173828,0.0000818175309987059
929,0.000194072723388672,0.000082781732309632
930,0.0000982284545898438,0.000108873525010475
931,0.000257968902587891,0.0000839991660455887
932,0.0000414848327636719,0.0000880639615394275
933,0.000138282775878906,0.0000637536808523494
934,0.000160694122314453,0.0000748391324588489
935,0.000235080718994141,0.0000818675383228307
936,0.000130176544189453,0.00010576974793937
937,-0.00000286102294921875,0.000120344479021815
938,0.000172615051269531,0.000103889237295975
939,0.000091552734375,0.000113733409321824
940,0.0000443458557128906,0.000086211314239422
941,-0.0000290870666503906,0.0000696361858244534
942,0.000215053558349609,0.0000916321727711816
943,0.000100135803222656,0.000104040142219965
944,0.000195980072021484,0.000085239226878172
945,0.000168800354003906,0.0000823231423735815
946,0.000102043151855469,0.000100920644160668
947,0.000142097473144531,0.000111050859558538
948,0.0000824928283691406,0.000118591615727528
949,0.000208377838134766,0.000103582377829509
950,0.0000591278076171875,0.000096594545112488
951,0.000218868255615234,0.000118115172513297
952,0.000128269195556641,0.0000804555850528313
953,0.000121116638183594,0.0000503204425315751
954,0.0000886917114257813,0.0000713998961981928
955,0.000136375427246094,0.000094951677071419
956,0.000231266021728516,0.00013299226844211
957,-0.0000758171081542969,0.000107191890154285
958,0.0000352859497070312,0.000101051233362862
959,0.000120639801025391,0.000136625287773485
960,0.000139713287353516,0.000131786610947607
961,0.000091552734375,0.000156027063941984
962,0.0000557899475097656,0.00012798792549937
963,0.000294208526611328,0.00014815446376194
964,0.0000896453857421875,0.000152739806845424
965,0.000173091888427734,0.000130350220630891
966,0.0000290870666503906,0.000171859944257165
967,0.000262737274169922,0.000114006968133693
968,0.0000767707824707031,0.0000998811663115087
969,0.000223159790039062,0.000158840462483219
970,0.00029754638671875,0.000103402222964705
971,0.000268459320068359,0.000113841313910695
972,0.0000338554382324219,0.000160407339632131
973,0.000234127044677734,0.000162046076871944
974,0.000269889831542969,0.000134007361314618
975,0.0000772476196289063,0.000121921209827399
976,0.000292301177978516,0.000147415963871496
977,0.000239372253417969,0.000177690793421463
978,-0.0000548362731933594,0.000152608750824779
979,0.000152111053466797,0.000128505623612708
980,0.000145912170410156,0.000182608087843345
981,0.000260353088378906,0.000163740631223787
982,0.000166416168212891,0.000163409805226165
983,0.000201225280761719,0.000153583023444914
984,0.0000758171081542969,0.000145130933292525
985,0.000412464141845703,0.00013402432749324
986,-0.00005340576171875,0.000163097826587158
987,0.000235557556152344,0.000195965569138204
988,0.000286579132080078,0.000116685862180864
989,0.000163555145263672,0.000113234519054901
990,0.000367641448974609,0.000189044134559804
991,-0.000057220458984375,0.000209647897575622
992,0.000350475311279297,0.000201742132199346
993,0.000288486480712891,0.000199616587171697
994,-0.000286102294921875,0.000162774075491305
995,0.0000948905944824219,0.000165879030342711
996,0.000383377075195312,0.000184909555779174
997,0.0000791549682617188,0.00023765824195576
998,0.000211715698242187,0.000186574382527873
999,0.000270366668701172,0.000194783164003359
1000,0.0000567436218261719,0.000279529084030116
1001,0.0000615119934082031,0.000239594421025415
1002,0.00048828125,0.000196826919695248
1003,0.000227928161621094,0.000216838781338249
1004,0.000125408172607422,0.000177726618694482
1005,0.000250816345214844,0.000189553416450987
1006,0.000401496887207031,0.000287921209842552
1007,0.000000476837158203125,0.000258901061258282
1008,0.000566005706787109,0.000248160644032144
1009,0.000469684600830078,0.000258183434174893
1010,0.0000195503234863281,0.000327481262447574
1011,0.000192165374755859,0.000343561089758562
1012,0.000394344329833984,0.000315163029827461
1013,0.000354290008544922,0.000305795041257188
1014,-0.0000348091125488281,0.000265039115577557
1015,0.000656604766845703,0.000201728607133762
1016,0.00058746337890625,0.000258049538044552
1017,0.00066375732421875,0.000324960937396253
1018,0.000446796417236328,0.000352245518345755
1019,0.000620841979980469,0.000307450164001687
1020,0.000417709350585938,0.000285816049432575
1021,0.000160694122314453,0.00031896093387799
1022,0.00109291076660156,0.000284354913737077
1023,0.00051116943359375,0.000314220853579881
1024,0.000423908233642578,0.000292104698595433
1025,0.000821590423583984,0.000377943911026026
1026,0.000398635864257812,0.000507168269489143
1027,-0.000116825103759766,0.000422063111712043
1028,0.000540256500244141,0.000464132822673778
1029,0.000882625579833984,0.000322618309571689
1030,-0.0000224113464355469,0.000377799497772875
1031,0.000895500183105469,0.000388743668304179
1032,0.0000262260437011719,0.0004755154411541
1033,0.000143527984619141,0.000458827372340386
1034,0.000326633453369141,0.000349674802790182
1035,0.000720024108886719,0.000703519538283915
1036,0.000410079956054688,0.000703767707921225
1037,0.0000844001770019531,0.0005078994007215
1038,0.00117111206054687,0.000511340212405885
1039,0.00055694580078125,0.000428725134846911
1040,0.000161647796630859,0.00062941348903329
1041,0.000250339508056641,0.000709472161363087
1042,0.0002899169921875,0.000521498555801402
1043,0.000100135803222656,0.000676869632240879
1044,0.00159311294555664,0.000682745560593605
1045,0.000500679016113281,0.000743151590691279
1046,0.000431537628173828,0.000546274771143716
1047,0.00195121765136719,0.0006933730419585
1048,0.000624179840087891,0.00103821455624336
1049,0.00156831741333008,0.000760570663487647
1050,0.000574111938476563,0.000560929149775396
1051,0.00138568878173828,0.00071131574739374
1052,0.00171899795532227,0.000778329127655462
1053,0.000958919525146484,0.000921168432370827
1054,0.000329971313476562,0.000745712336317974
1055,0.00161600112915039,0.00116360147838861
1056,0.00141191482543945,0.000567300764313394
1057,0.00138998031616211,0.000632929438659406
1058,0.00194358825683594,0.000895503737795014
1059,0.00126361846923828,0.000705461197239187
1060,0.000998973846435547,0.000846931523463768
1061,0.000169277191162109,0.0010093893681971
1062,0.00147724151611328,0.00111098760104246
1063,0.000390529632568359,0.00136325133326367
1064,0.00141716003417969,0.000965608314143151
1065,0.00118923187255859,0.000990646840706142
1066,0.000126361846923828,0.00109212324385935
1067,-0.000211238861083984,0.000902415802172073
1068,0.00104808807373047,0.00151289181451926
1069,0.00310516357421875,0.00176850615950367
1070,-0.000293254852294922,0.00171391593016083
1071,-0.000462055206298828,0.00140314501130037
1072,-0.0000615119934082031,0.00102728033776626
1073,0.0000905990600585938,0.00119616157475232
1074,0.000867843627929688,0.00147174164781457
1075,0.00241851806640625,0.00115057239326997
1076,-0.00207185745239258,0.00133677791350824
1077,0.00175046920776367,0.00140976678008436
1078,0.00296640396118164,0.0017952599212311
1079,0.00148963928222656,0.00187226647556667
1080,-0.000151157379150391,0.00189365814186064
1081,0.00313806533813477,0.0020457592281787
1082,0.00179910659790039,0.0023361400401617
1083,-0.00152254104614258,0.00153227419563393
1084,0.00292253494262695,0.00279214993725376
1085,0.000619411468505859,0.00236358593324443
1086,-0.000146865844726562,0.00242278627971138
1087,0.00330209732055664,0.0019295883597262
1088,-0.000566005706787109,0.00192774736502463
1089,0.0012202262878418,0.00194086758530198
1090,0.00252342224121094,0.00230023398310567
1091,-0.00276851654052734,0.00215051507199945
1092,0.00295400619506836,0.00208264304685847
1093,-0.000623703002929688,0.00241050234246432
1094,0.00194692611694336,0.00262255928694383
1095,0.00184726715087891,0.00284755333503864
1096,0.00151348114013672,0.00290302221446813
1097,-0.00101518630981445,0.00224319768871302
1098,0.00379419326782227,0.00274416499279783
1099,-0.0000591278076171875,0.00338346229285527
1100,0.00191879272460937,0.00218722912269292
