Wavelength (nm),Absorbance (AU),Std.Dev.
190,1.2680869102478,0.543755051161884
191,1.0546612739563,0.293619069890096
192,0.802085399627686,0.219502924384794
193,0.83010196685791,0.712374063705737
194,1.61744070053101,1.47476328873908
195,1.46835470199585,0.908872820964243
196,1.80558252334595,0.891190198949206
197,1.32853698730469,0.452020812509121
198,1.24322366714478,0.183375452000764
199,1.40832614898682,0.460175482407934
200,2.16651630401611,0.896907664910385
201,1.92304039001465,0.434893884102418
202,2.00503063201904,0.108844013136032
203,2.6590404510498,0.31118497728504
204,3.77638053894043,0.588717364076876
205,3.35692358016968,0.391580861750242
206,3.89001226425171,0.401204394069049
207,3.47868871688843,0.30078759124809
208,3.78930473327637,0.425790209194732
209,3.48764038085937,0.425216440176169
210,3.99999952316284,0.437857345691244
211,3.87141275405884,0.282387024561372
212,3.79418563842773,0.435700120181946
213,3.91193103790283,0.564922625889765
214,3.96839714050293,0.286530826527934
215,3.603102684021,0.222090152065622
216,3.59301280975342,0.27870210928993
217,3.63050889968872,0.502025317036215
218,3.90915584564209,0.320372040960047
219,3.52873039245606,0.42992713488287
220,3.93920755386353,0.474034341718937
221,3.8923807144165,0.239211969460159
222,3.2570858001709,0.0937372834799952
223,3.27883052825928,0.160789169546512
224,3.70157957077026,0.203256417824183
225,3.43554449081421,0.158200110889497
226,3.2497673034668,0.0725192182653831
227,3.05139541625977,0.0359807293494932
228,2.88205194473267,0.0196881666524732
229,2.72933864593506,0.0138244292067229
230,2.61834907531738,0.00973084933632748
231,2.52245950698853,0.0122994548025488
232,2.3822135925293,0.0078099962037037
233,2.29135036468506,0.00700748985508903
234,2.21244192123413,0.00703600616658772
235,2.14235401153564,0.00517576685489596
236,2.08478736877441,0.00417020220562443
237,2.03770589828491,0.00440638321479005
238,2.00713682174683,0.00277609335306705
239,1.99066400527954,0.00194847029113097
240,1.98448896408081,0.00239417159287187
241,1.9917163848877,0.00290125721530765
242,2.0153956413269,0.00251219175758575
243,2.03350687026978,0.00285637032174032
244,2.08541011810303,0.00299251269274086
245,2.14347791671753,0.00490146887522311
246,2.21791124343872,0.00435033401462016
247,2.26608467102051,0.00780939994340922
248,2.39888572692871,0.00938017225638058
249,2.47864007949829,0.0137238196909475
250,2.5753436088562,0.0195625055087633
251,2.73142671585083,0.030486312108595
252,2.88458108901978,0.0373806325183173
253,2.94059467315674,0.038151611046128
254,3.00120258331299,0.0339811827815578
255,3.12417554855347,0.0530959554823757
256,3.18579578399658,0.0691086172381021
257,3.07356691360474,0.0846995575263886
258,3.34482288360596,0.0969677880670041
259,3.30810642242432,0.134315513040963
260,3.29447174072266,0.180249206964492
261,3.22553491592407,0.101426253263513
262,3.12973022460937,0.0965464280465864
263,3.29868221282959,0.102601822311548
264,3.31387853622437,0.110963458395641
265,3.16495180130005,0.0822590888199076
266,3.04714298248291,0.0688995814827
267,3.08553600311279,0.0687298138200538
268,3.20006275177002,0.118739719949771
269,3.19755983352661,0.103361194505196
270,3.18689012527466,0.0553784992843197
271,3.02795696258545,0.0569606814715521
272,2.9515700340271,0.0398555364192249
273,2.92493200302124,0.0377574349464816
274,2.84586572647095,0.0464522050085751
275,2.68126249313354,0.0333088705579928
276,2.5176796913147,0.0220214302417572
277,2.24190998077393,0.0120448206870547
278,1.96153593063355,0.00549629969641415
279,1.73214530944824,0.00264580538439569
280,1.52915191650391,0.00102441491526085
281,1.35526037216187,0.000801122755407616
282,1.2135853767395,0.000545234881679728
283,1.10323190689087,0.000559292383060036
284,1.00757074356079,0.000494220494423428
285,0.929024696350098,0.000516803494668375
286,0.864188671112061,0.000329943749483775
287,0.810425281524658,0.00025963772317483
288,0.764552116394043,0.000367401096430496
289,0.726490497589111,0.000318030009267622
290,0.694628715515137,0.000310891976330707
291,0.667391777038574,0.00034394208359868
292,0.644211769104004,0.000353832449991877
293,0.624566078186035,0.000260588780290276
294,0.607969760894775,0.000242679665235067
295,0.593348503112793,0.000198313816699858
296,0.581452369689941,0.000272069760884768
297,0.570975780487061,0.000375733157424256
298,0.561929225921631,0.000268279281196857
299,0.554220199584961,0.000214163063599699
300,0.548388957977295,0.00026036531468563
301,0.543739318847656,0.000314388686516984
302,0.538794040679932,0.000239932025047552
303,0.535597801208496,0.000278916723791976
304,0.532838821411133,0.000296646370894271
305,0.530948162078857,0.000269247105256336
306,0.529884338378906,0.000227026572782729
307,0.52919864654541,0.000244483111483221
308,0.529102325439453,0.000339197166487402
309,0.529032707214356,0.000319695756315961
310,0.529459476470947,0.000208019083069204
311,0.529470920562744,0.000150596015496459
312,0.530922412872314,0.000206355377775837
313,0.531639099121094,0.000260106693253912
314,0.533052921295166,0.000200679907799723
315,0.533937454223633,0.000140679084126173
316,0.535082340240479,0.00023446815720555
317,0.536356925964356,0.00034803755883658
318,0.537094593048096,0.000357840157126075
319,0.537551879882813,0.000261870006899757
320,0.538528919219971,0.000283278196349153
321,0.538690567016602,0.000257294190281568
322,0.538005828857422,0.00029663410695186
323,0.538186550140381,0.000245248248959391
324,0.537486553192139,0.000226364598596792
325,0.536192417144775,0.000221396267939074
326,0.535248756408691,0.000236257293722772
327,0.532817363739014,0.000250887044943139
328,0.530630111694336,0.000192892271098483
329,0.527649879455566,0.000173322272081691
330,0.524151802062988,0.000158312809010379
331,0.519947528839111,0.000198102741983805
332,0.516309261322022,0.000328402012381523
333,0.511519908905029,0.000258704263811145
334,0.505959510803223,0.000261459862625338
335,0.50034761428833,0.000257661551750774
336,0.494640827178955,0.0002377844961721
337,0.488577842712402,0.000228869914698088
338,0.481693744659424,0.000282094219058676
339,0.474251270294189,0.000245240831915976
340,0.466959476470947,0.000255847909266426
341,0.459247589111328,0.000279717733088414
342,0.450997829437256,0.000220036453693882
343,0.442196369171143,0.000193762590014653
344,0.433516979217529,0.000232113435939466
345,0.42467737197876,0.000155744096826442
346,0.415310382843018,0.000128509162299008
347,0.405730247497559,0.000184742247953009
348,0.396416664123535,0.000189183602630271
349,0.386712551116943,0.000152143188000064
350,0.376756191253662,0.000149115145001923
351,0.366963386535645,0.000196016614528206
352,0.357011318206787,0.000175569343657963
353,0.347171783447266,0.000212063375017621
354,0.33673095703125,0.000307414663722831
355,0.327001094818115,0.000195188967560331
356,0.316813945770264,0.000177624241601485
357,0.306970596313477,0.000188774525306957
358,0.29662561416626,0.000218051746196368
359,0.286659717559814,0.000199511766865501
360,0.277046203613281,0.000200571108709156
361,0.26689624786377,0.000267287537707367
362,0.257720947265625,0.00033212521044002
363,0.248595714569092,0.000246313971519824
364,0.239554405212402,0.000285312834950488
365,0.231369972229004,0.000285312834950488
366,0.224215507507324,0.000261849167608487
367,0.217392444610596,0.000237010613180725
368,0.210861682891846,0.000168859611498082
369,0.203119277954102,0.000124559504324417
370,0.19568920135498,0.000189366198413294
371,0.189002513885498,0.000207550733688833
372,0.181741714477539,0.000161376799108689
373,0.174910068511963,0.000167274040125909
374,0.168232917785645,0.000231261597423903
375,0.161748886108398,0.000175211541182775
376,0.155224800109863,0.000169695083156627
377,0.148889541625977,0.000242308357197298
378,0.142744064331055,0.000178201899560873
379,0.136778354644775,0.000125345606118154
380,0.131252765655518,0.000147209137824877
381,0.125855922698975,0.000173987418090534
382,0.120534420013428,0.000160427183079335
383,0.115263938903809,0.000217441926882484
384,0.110146522521973,0.00020846893012993
385,0.105400085449219,0.000168122801373577
386,0.100890636444092,0.000197505006921447
387,0.0961403846740723,0.000130035862343287
388,0.0915040969848633,0.000146543471018884
389,0.0876197814941406,0.000142541613704936
390,0.0835614204406738,0.000209126665515073
391,0.0797476768493652,0.000215327749945017
392,0.0756711959838867,0.000188195490584768
393,0.0719447135925293,0.000187070941449544
394,0.0686450004577637,0.000182618048737275
395,0.0653319358825684,0.000163590591415486
396,0.0622386932373047,0.000165689763030236
397,0.0592036247253418,0.000177147410903951
398,0.0560727119445801,0.000184293706194781
399,0.0533280372619629,0.000184076436865918
400,0.0506339073181152,0.000186929897132898
401,0.0481090545654297,0.000170510460475524
402,0.0457701683044434,0.000225046932800532
403,0.0433392524719238,0.000197932801156278
404,0.0410256385803223,0.000164916735238779
405,0.0386052131652832,0.000168528040832869
406,0.0364747047424316,0.000148289456467632
407,0.0348038673400879,0.000166248712753445
408,0.0328478813171387,0.000222159040973825
409,0.0308799743652344,0.000174279904350469
410,0.0290851593017578,0.000205037760168101
411,0.0275845527648926,0.000191667185490924
412,0.0259685516357422,0.000214472851514749
413,0.0243182182312012,0.000162885786488938
414,0.0230073928833008,0.000193170258125674
415,0.0215473175048828,0.000190763471365297
416,0.0203938484191895,0.000162519646917496
417,0.0191574096679687,0.000185763419366323
418,0.017676830291748,0.000176003947519327
419,0.0166826248168945,0.000110999660922536
420,0.0158677101135254,0.000149099896027582
421,0.0146875381469727,0.000148938160913319
422,0.0136508941650391,0.000117474328503514
423,0.0129671096801758,0.000145099596316949
424,0.0123109817504883,0.000134859799611868
425,0.0111556053161621,0.000201109993257029
426,0.0107951164245605,0.000236284239345397
427,0.00989246368408203,0.000226384686860451
428,0.00926542282104492,0.000203867822084848
429,0.00869846343994141,0.000188113316531768
430,0.00746011734008789,0.000121277979522549
431,0.00763463973999023,0.000148019347943807
432,0.0070338249206543,0.000138404398083086
433,0.00648880004882813,0.000142694664873261
434,0.00590085983276367,0.000131153624786475
435,0.00544929504394531,0.000168185001471118
436,0.00509357452392578,0.000125852493941819
437,0.0047602653503418,0.000172543906203131
438,0.00419473648071289,0.000145675117561194
439,0.00360965728759766,0.000169928065035146
440,0.00352668762207031,0.000182692738130619
441,0.00315713882446289,0.00016061698918791
442,0.00290584564208984,0.000108808764722007
443,0.0025935173034668,0.00011468900175863
444,0.00253009796142578,0.00013306405545494
445,0.00204658508300781,0.000115225013154615
446,0.00184011459350586,0.000170008329583117
447,0.00160694122314453,0.000153630390892262
448,0.00146245956420898,0.000128781349141983
449,0.00140476226806641,0.000110823356981918
450,0.00119924545288086,0.0001304722665285
451,0.00110530853271484,0.00015093986312241
452,0.000795841217041016,0.000141873278826341
453,0.000735282897949219,0.000144729307593633
454,0.000545024871826172,0.000129685681650616
455,0.000289440155029297,0.000192420189453123
456,0.000174522399902344,0.00015904931824787
457,0.000160694122314453,0.000195821642358934
458,0.0000872611999511719,0.000122312216681176
459,-0.000172615051269531,0.000158097227661093
460,-0.000135421752929687,0.000141930962617635
461,-0.0000853538513183594,0.000113863281938354
462,-0.000253200531005859,0.0000974592628638529
463,-0.000756263732910156,0.0000896555306396049
464,-0.000553131103515625,0.0000786419987796337
465,-0.000511646270751953,0.0000927690337102114
466,-0.000424861907958984,0.0000990330051880098
467,-0.000766277313232422,0.000126698782497277
468,-0.000834465026855469,0.000101064732959925
469,-0.000774383544921875,0.000131091198751096
470,-0.000886440277099609,0.000109890017302711
471,-0.000844955444335938,0.000104430603603346
472,-0.000893115997314453,0.0000948366654086514
473,-0.0010833740234375,0.000113871269261287
474,-0.000992298126220703,0.000121114760857398
475,-0.00107336044311523,0.000101875898961834
476,-0.000895023345947266,0.0000984596568458252
477,-0.00109958648681641,0.000105814882098533
478,-0.00119733810424805,0.00010475668509261
479,-0.00107049942016602,0.0000768359127158878
480,-0.00125455856323242,0.0000777931728726697
481,-0.00121402740478516,0.000131025272335782
482,-0.00126314163208008,0.000133915706806777
483,-0.00121593475341797,0.0000795618195137566
484,-0.00122213363647461,0.0000761880736099179
485,-0.00144624710083008,0.000083657406905442
486,-0.00127029418945312,0.0000959663657233756
487,-0.0009307861328125,0.0000754337696369625
488,-0.00105857849121094,0.0000660862584650819
489,-0.00127363204956055,0.000102643005730238
490,-0.00125694274902344,0.0000933091248489249
491,-0.00137901306152344,0.0000905187150166876
492,-0.0013275146484375,0.0000793758435957185
493,-0.0012364387512207,0.0000858584994717764
494,-0.00130033493041992,0.000109769943775328
495,-0.00133609771728516,0.000104258457346343
496,-0.00131845474243164,0.000100819208422871
497,-0.00142002105712891,0.0000867791226659952
498,-0.00119876861572266,0.0000799836591577978
499,-0.00125837326049805,0.0000709526641359477
500,-0.00127410888671875,0.0000833442606589724
501,-0.00115346908569336,0.0000980570139619976
502,-0.00121021270751953,0.000084459424102231
503,-0.00127267837524414,0.0000768862028445194
504,-0.00105810165405273,0.0000679806586712992
505,-0.00114250183105469,0.0000744751867319727
506,-0.00119447708129883,0.0000953912705190477
507,-0.00106048583984375,0.000108261988813007
508,-0.0010523796081543,0.0000635303873181395
509,-0.00118207931518555,0.0000544628615020794
510,-0.000974655151367188,0.0000809711055340459
511,-0.00113868713378906,0.000116765727310191
512,-0.00108003616333008,0.0000903703915813692
513,-0.00107097625732422,0.0000892564778611613
514,-0.00110340118408203,0.0000827501396352198
515,-0.00103521347045898,0.000075639961628613
516,-0.000952720642089844,0.000121971552356485
517,-0.00110101699829102,0.000114855413028143
518,-0.00107765197753906,0.0000974802577146961
519,-0.000861167907714844,0.000108299786121966
520,-0.000878810882568359,0.00011235764864022
521,-0.000962257385253906,0.000106747642215241
522,-0.000972270965576172,0.000123768409790065
523,-0.000926494598388672,0.000107431316502677
524,-0.000954151153564453,0.0000887660258703169
525,-0.000872135162353516,0.0000852018740162214
526,-0.000822067260742188,0.0000794846208134985
527,-0.000948905944824219,0.0000790859979016035
528,-0.000857353210449219,0.0000798399711363363
529,-0.000893115997314453,0.000106166698352506
530,-0.000816822052001953,0.000096474421639071
531,-0.000731468200683594,0.0000859934535092075
532,-0.000802516937255859,0.0000920555097958251
533,-0.000932693481445313,0.000093170124938586
534,-0.000700950622558594,0.0000917115423597054
535,-0.000699996948242188,0.000089307411714805
536,-0.000655174255371094,0.0000761806123105679
537,-0.000665664672851563,0.0000767159710567012
538,-0.000709056854248047,0.0000788671938477911
539,-0.000673294067382813,0.0000719139363959192
540,-0.000527858734130859,0.0000622231383445689
541,-0.000588417053222656,0.000059596061088473
542,-0.000647544860839844,0.0000651157761196578
543,-0.000520706176757813,0.0000766670521402968
544,-0.000580310821533203,0.0000608607497473369
545,-0.000451087951660156,0.0000736478039570651
546,-0.000548362731933594,0.000088883776511524
547,-0.000545978546142578,0.0000864404634555802
548,-0.000697612762451172,0.000085448367250832
549,-0.000560283660888672,0.0000831913453019068
550,-0.000530719757080078,0.0000946710913564501
551,-0.000672817230224609,0.0000694432738461797
552,-0.000503063201904297,0.000060094725950493
553,-0.000511646270751953,0.0000686926916525579
554,-0.000456333160400391,0.0000735025571133864
555,-0.000444889068603516,0.0000896453857421875
556,-0.000582695007324219,0.0000740787665719564
557,-0.000417709350585938,0.0000813856408670276
558,-0.000369548797607422,0.0000792238785779577
559,-0.000493049621582031,0.0000555602259233621
560,-0.0004730224609375,0.000058899523368828
561,-0.000430583953857422,0.0000540994819781602
562,-0.000430107116699219,0.0000622121748807635
563,-0.000421047210693359,0.0000829093538510571
564,-0.000460147857666016,0.0000788801662555553
565,-0.000395774841308594,0.0000932481854852956
566,-0.000392913818359375,0.00009628096773413
567,-0.000413894653320313,0.0000550504317253291
568,-0.000261306762695312,0.000055101004420913
569,-0.000409603118896484,0.000058838691201442
570,-0.000291347503662109,0.0000743728404897077
571,-0.000248432159423828,0.0000785523188975248
572,-0.000156879425048828,0.0000810202321031365
573,-0.000277042388916016,0.0000669187906185882
574,-0.000326633453369141,0.0000607073819104533
575,-0.000232219696044922,0.0000692711631673236
576,-0.000233650207519531,0.0000736045689124384
577,-0.00022125244140625,0.000077892484589511
578,-0.0002899169921875,0.0000583390337670416
579,-0.000204563140869141,0.0000676218306971857
580,-0.000255584716796875,0.0000632182496852427
581,-0.000187873840332031,0.0000606914618556874
582,-0.000207901000976562,0.0000573692770744131
583,0.0000391006469726562,0.0000716208776684517
584,-0.000200748443603516,0.0000647832023084007
585,-0.000249862670898437,0.000062703633034812
586,-0.000121593475341797,0.0000560633570390636
587,-0.000212192535400391,0.0000609204958730816
588,-0.000149726867675781,0.0000710087221869899
589,-0.000165939331054687,0.0000664944245231816
590,-0.000237941741943359,0.0000671477474234191
591,-0.000192165374755859,0.0000663489391795861
592,-0.000159740447998047,0.0000552771303293132
593,-0.000153064727783203,0.0000607859845095088
594,-0.000214099884033203,0.000051830685653981
595,-0.000124931335449219,0.0000662546313709996
596,-0.000114917755126953,0.0000635321767804965
597,-0.000195503234863281,0.0000574296861313189
598,-0.000130176544189453,0.0000760955017889546
599,-0.000192642211914062,0.0000795146514363859
600,-0.0000762939453125,0.0000753825105490475
601,-0.000144004821777344,0.0000747981059784014
602,-0.000141143798828125,0.0000554557719918084
603,-0.0000576972961425781,0.000060056878153597
604,-0.000117778778076172,0.0000717604278236851
605,-0.0000863075256347656,0.0000660174114222595
606,-0.0000753402709960938,0.0000595989224548076
607,-0.000128746032714844,0.0000573355788281434
608,-0.0000872611999511719,0.0000609307588385135
609,-0.0000929832458496094,0.0000673641136993283
610,-0.0000462532043457031,0.0000636626716748175
611,-0.0000653266906738281,0.0000432964463575445
612,-0.000136375427246094,0.0000632739731422362
613,-0.000170707702636719,0.0000599412947754213
614,-0.000113964080810547,0.0000680725752820699
615,-0.000187873840332031,0.0000739174500432805
616,-0.000180721282958984,0.0000673539870567687
617,-0.000128269195556641,0.0000577593304405515
618,-0.000148773193359375,0.0000590806819406037
619,-0.0000815391540527344,0.0000407388917433822
620,-0.000163555145263672,0.00005833026383733
621,-0.0000557899475097656,0.0000576026392254998
622,-0.000204086303710937,0.0000742366698161566
623,-0.00000667572021484375,0.0000653754003988231
624,-0.000123023986816406,0.0000573445008793149
625,-0.000136375427246094,0.0000602052941781558
626,-0.0000348091125488281,0.0000601816855541222
627,-0.0000586509704589844,0.0000798314270760479
628,-0.000141620635986328,0.0000861757019910566
629,-0.000127315521240234,0.0000793070653227736
630,-0.000176429748535156,0.0000553685765213546
631,-0.000194072723388672,0.0000748482464006058
632,-0.000101566314697266,0.0000870616381914307
633,-0.000161647796630859,0.0000695969928083619
634,-0.000123500823974609,0.0000495302763084838
635,-0.0000624656677246094,0.0000445912860517732
636,-0.000095367431640625,0.000066362645514325
637,-0.00000858306884765625,0.0000549843075388873
638,-0.0000944137573242188,0.0000531657394030455
639,-0.000115871429443359,0.0000548030918738136
640,-0.000166416168212891,0.0000697715586126582
641,-0.0000810623168945313,0.0000683259562992019
642,-0.0000925064086914063,0.0000743621394715039
643,-0.0000185966491699219,0.0000785855991814889
644,-0.0000329017639160156,0.0000738066292162767
645,-0.0000896453857421875,0.000108649834245901
646,-0.0000548362731933594,0.0000993081356117149
647,-0.000057220458984375,0.000088940036927528
648,-0.000105381011962891,0.000105313024554278
649,-0.0000643730163574219,0.0000805784256234691
650,-0.000138282775878906,0.0000653058039556111
651,-0.0000681877136230469,0.0000640507863029193
652,-0.0000238418579101562,0.0000628846798776037
653,-0.000151157379150391,0.000070500982583146
654,-0.0000529289245605469,0.0000743697832130538
655,-0.0000777244567871094,0.0000848395018245095
656,-0.00031280517578125,0.0000566232831741945
657,0.000928401947021484,0.0000426942374637319
658,0.000186920166015625,0.0000489890716823999
659,-0.0000138282775878906,0.0000528364834852964
660,-0.0000486373901367188,0.0000455210939142712
661,-0.0000319480895996094,0.0000547179728995554
662,0.0000519752502441406,0.0000718443442884463
663,0.0000691413879394531,0.0000470657841006148
664,0.0000410079956054688,0.0000521335902217627
665,0.00000905990600585938,0.0000631930681468267
666,-0.0000162124633789062,0.0000879373566911374
667,-0.0000777244567871094,0.0000838121848488823
668,0.0000095367431640625,0.0000657274663548003
669,-0.000000476837158203125,0.0000657568641732857
670,0.0000681877136230469,0.0000636912375730187
671,0.0000467300415039063,0.0000630652069754236
672,-0.0000157356262207031,0.0000690047789006831
673,0.0000104904174804687,0.0000481333986534175
674,0.0000152587890625,0.0000380313133209104
675,0.000112533569335937,0.0000607139360137825
676,-0.0000128746032714844,0.000057077228574543
677,0.0000548362731933594,0.0000593657474421918
678,0.0000286102294921875,0.0000684007903433534
679,-0.000026702880859375,0.0000643871433156997
680,0.000057220458984375,0.0000625075134589155
681,0.0000252723693847656,0.0000709927101178331
682,0.00000905990600585938,0.0000747327210123659
683,0.0000095367431640625,0.0000653058039556111
684,0.0000452995300292969,0.0000654483970137929
685,-0.0000319480895996094,0.0000345937060355868
686,0.0000844001770019531,0.0000473427502969743
687,0.000114917755126953,0.000065967452386067
688,0.0000905990600585938,0.000071869658306158
689,0.0000367164611816406,0.000074822420682328
690,0.0000996589660644531,0.0000589718607973687
691,0.000095367431640625,0.0000554906118157835
692,0.0000605583190917969,0.0000588589755762943
693,0.0000762939453125,0.0000468879096128268
694,0.0000438690185546875,0.0000415929394201688
695,-0.0000176429748535156,0.0000395918440907422
696,-0.00000905990600585938,0.0000479013720652694
697,0.0000424385070800781,0.0000644453842850369
698,0.000138282775878906,0.0000428079214309073
699,0.0000524520874023438,0.0000601873524684512
700,0.0000214576721191406,0.0000712436843300462
701,-0.0000844001770019531,0.0000471743558345065
702,0.0000853538513183594,0.0000416393799436587
703,0.0000357627868652344,0.0000528827242217535
704,0.0000276565551757812,0.0000503249608437447
705,0.0000100135803222656,0.0000456968252209127
706,-0.0000123977661132812,0.0000440913248274492
707,0.0000562667846679688,0.0000435504019925158
708,-0.0000548362731933594,0.0000506548312343144
709,0.0000467300415039063,0.0000456744290844632
710,0.0000143051147460937,0.0000554731946389308
711,0.0000452995300292969,0.0000491246425362744
712,0.0000333786010742187,0.0000605827192275541
713,0.000000476837158203125,0.0000657948889106418
714,0.00000143051147460937,0.0000510872658651365
715,0.0000710487365722656,0.0000421428022192057
716,-0.00000238418579101562,0.0000615729540004412
717,0.0000715255737304688,0.0000599346561806264
718,0.0000205039978027344,0.000061944799190731
719,0.000104427337646484,0.0000684140856037624
720,0.00000762939453125,0.0000517186998861551
721,0.0000576972961425781,0.0000528171148777838
722,0.0000476837158203125,0.0000575325323644358
723,0.000109195709228516,0.0000434236098274973
724,0.0000634193420410156,0.0000428649818763144
725,0.000064849853515625,0.0000447071391836218
726,0.000080108642578125,0.0000556879660193317
727,0.000165462493896484,0.0000543500239606272
728,0.000118732452392578,0.0000603109473719582
729,0.0000691413879394531,0.0000568197044837304
730,0.0000967979431152344,0.0000650056901979547
731,0.000149726867675781,0.0000589593286682765
732,0.000112056732177734,0.0000603100048587743
733,0.00009918212890625,0.0000415977224561857
734,0.0000872611999511719,0.0000630507838289856
735,0.000144481658935547,0.000058126234440644
736,0.000120639801025391,0.0000545775488194923
737,0.000132560729980469,0.0000646848542976357
738,0.000110149383544922,0.0000627235737677171
739,0.0000910758972167969,0.0000521477627353375
740,0.0000910758972167969,0.0000470573291331078
741,0.000156402587890625,0.0000506402409007549
742,0.000133037567138672,0.0000465105702842581
743,0.0000987052917480469,0.0000563021322526227
744,0.000110626220703125,0.0000475679422633913
745,0.000130653381347656,0.0000504434217900135
746,0.0000958442687988281,0.000068526991170845
747,0.0000677108764648438,0.0000682776864547459
748,0.0000853538513183594,0.0000611207778708051
749,0.000132083892822266,0.0000493163514402529
750,0.00008392333984375,0.0000548424924557872
751,0.000115394592285156,0.000046642376940298
752,0.000100612640380859,0.0000534834041915208
753,0.000218391418457031,0.0000558317060771833
754,0.0000905990600585938,0.0000570712528399745
755,0.000111103057861328,0.0000456420597082438
756,0.000149250030517578,0.0000626419579100087
757,0.000172615051269531,0.0000428503922507346
758,0.000186920166015625,0.0000382942100032254
759,0.000202655792236328,0.0000624529265011112
760,0.000200271606445312,0.0000552874127249692
761,0.000222206115722656,0.0000480991387410927
762,0.000152111053466797,0.0000568527086712961
763,0.000188827514648437,0.0000628123237612729
764,0.000134468078613281,0.0000515271036266412
765,0.000183582305908203,0.0000456420597082438
766,0.000198841094970703,0.0000475153334231548
767,0.000191688537597656,0.0000666088772531394
768,0.000164985656738281,0.0000651035535430846
769,0.000193119049072266,0.0000560451036167347
770,0.000101566314697266,0.000045661982039925
771,0.000214576721191406,0.0000552575885062601
772,0.000178337097167969,0.0000669968934124922
773,0.000245094299316406,0.0000546295998249131
774,0.000172615051269531,0.0000506121707452215
775,0.000177860260009766,0.0000451411439744525
776,0.000239849090576172,0.0000689569842332473
777,0.000192165374755859,0.0000537378764463834
778,0.000178337097167969,0.0000421117677332535
779,0.000211715698242187,0.000050966955521212
780,0.000203132629394531,0.0000588261307023356
781,0.000160694122314453,0.0000518493264334558
782,0.000174522399902344,0.0000584898651111359
783,0.000239849090576172,0.0000632488137892579
784,0.0001220703125,0.0000422761253643416
785,0.000213623046875,0.0000457999546157148
786,0.000252723693847656,0.0000519052086049835
787,0.000216007232666016,0.0000570413647767359
788,0.000238418579101562,0.0000613139164446245
789,0.000176906585693359,0.0000611877025214075
790,0.000185489654541016,0.0000482960955930642
791,0.000226020812988281,0.0000504231339645427
792,0.000127792358398437,0.0000537833422073117
793,0.000264167785644531,0.0000689338990851969
794,0.000195980072021484,0.000048750624022369
795,0.000147819519042969,0.0000493555252414668
796,0.00017547607421875,0.0000540153589573147
797,0.000173568725585937,0.0000500383744138523
798,0.000178813934326172,0.000056664427622377
799,0.000202655792236328,0.0000690014837795629
800,0.000244140625,0.0000603071772308423
801,0.000220298767089844,0.000056433229440602
802,0.000198841094970703,0.0000452455399664225
803,0.000288963317871094,0.0000607373377522321
804,0.000311851501464844,0.0000546160713356404
805,0.000260353088378906,0.0000595989224548076
806,0.000282764434814453,0.0000721160043153602
807,0.000238418579101562,0.000059257449799224
808,0.000240802764892578,0.0000502458317204913
809,0.000242710113525391,0.0000580332566780907
810,0.000280857086181641,0.0000605911631390597
811,0.000246524810791016,0.0000466338452068537
812,0.000226974487304687,0.0000470476644525513
813,0.000233650207519531,0.0000637572471925671
814,0.000247955322265625,0.0000619521399265736
815,0.000281333923339844,0.0000590123310257148
816,0.000257015228271484,0.0000685303091068467
817,0.000288009643554687,0.0000535641178736328
818,0.000278949737548828,0.0000508284702428051
819,0.000236034393310547,0.0000491524057236476
820,0.000290870666503906,0.0000580322771725135
821,0.000268459320068359,0.0000573355788281434
822,0.000270366668701172,0.0000501314395831004
823,0.000252246856689453,0.0000565811041801122
824,0.000168800354003906,0.0000662100027378456
825,0.000293731689453125,0.0000637037311255063
826,0.000271797180175781,0.0000615027516837549
827,0.000180721282958984,0.0000448493168265533
828,0.000256061553955078,0.0000625093322032154
829,0.000247001647949219,0.0000535418275742271
830,0.000247955322265625,0.0000590094412155833
831,0.000286102294921875,0.0000548051662948403
832,0.000198841094970703,0.0000550669503654294
833,0.000234603881835937,0.000053401504074408
834,0.000279903411865234,0.0000660810974249616
835,0.000197410583496094,0.0000653406114434015
836,0.000266075134277344,0.0000582317551574967
837,0.000285625457763672,0.0000595569419708099
838,0.000209331512451172,0.0000680007238012141
839,0.000207901000976562,0.0000587623205984808
840,0.000273704528808594,0.0000593638323871922
841,0.000287532806396484,0.0000757826120844693
842,0.000306606292724609,0.0000575759889287592
843,0.00031280517578125,0.0000679053616291729
844,0.000323772430419922,0.0000457540099860749
845,0.000309944152832031,0.0000550989411379024
846,0.000315189361572266,0.0000717366600582064
847,0.000291347503662109,0.0000617278547584288
848,0.000317096710205078,0.0000581692474689888
849,0.000382900238037109,0.0000509379494809169
850,0.000254631042480469,0.0000587052195183109
851,0.000300407409667969,0.0000608065541140108
852,0.000329017639160156,0.0000616135608871959
853,0.000278472900390625,0.0000626546606927801
854,0.000276565551757812,0.0000594681129766727
855,0.000211715698242187,0.0000566574050756611
856,0.0002899169921875,0.0000604878789378068
857,0.000306129455566406,0.000060874758006696
858,0.000280857086181641,0.0000658190750331536
859,0.000279903411865234,0.0000503068851601935
860,0.000313758850097656,0.0000515215874557647
861,0.000255107879638672,0.000070030156401618
862,0.000281333923339844,0.0000560217711442876
863,0.0002593994140625,0.0000699733143919492
864,0.000252723693847656,0.0000655386611306494
865,0.000197887420654297,0.0000609298259130893
866,0.000277042388916016,0.0000674231554670689
867,0.000356674194335937,0.0000577288139577755
868,0.000242710113525391,0.000077680563673212
869,0.000272750854492187,0.0000588000349386783
870,0.000281810760498047,0.0000480269950187795
871,0.000177383422851562,0.000053382340472576
872,0.000241279602050781,0.0000524943354995018
873,0.000289440155029297,0.0000540079919588157
874,0.000201225280761719,0.000062443824035496
875,0.000278472900390625,0.000073415890489606
876,0.000225067138671875,0.0000761791199630031
877,0.00017547607421875,0.0000767707824707031
878,0.000186920166015625,0.0000781460310895846
879,0.000304698944091797,0.0000781969325082182
880,0.000243663787841797,0.0000452643810232611
881,0.000271320343017578,0.000053297085542385
882,0.000283241271972656,0.0000779610525728908
883,0.000283241271972656,0.0000765587265148503
884,0.000228404998779297,0.0000475715271111459
885,0.000309467315673828,0.0000567856801063078
886,0.000365734100341797,0.000059674222390863
887,0.000318527221679687,0.0000585520305227159
888,0.000352859497070312,0.0000634766799898161
889,0.000321865081787109,0.0000838230357273391
890,0.000298023223876953,0.0000644136230116588
891,0.000234127044677734,0.0000558052286592236
892,0.00032806396484375,0.0000707874357454623
893,0.000222206115722656,0.0000671104892187469
894,0.000343799591064453,0.0000481440260828725
895,0.000240325927734375,0.000083950428492286
896,0.000345706939697266,0.0000694989135702176
897,0.0002288818359375,0.0000628485122321907
898,0.000380039215087891,0.0000645000475936632
899,0.000313758850097656,0.000062855747426163
900,0.000403881072998047,0.0000594528171881095
901,0.000275135040283203,0.0000723567982345533
902,0.000347614288330078,0.0000711398852122736
903,0.000257015228271484,0.0000682726910747354
904,0.000330448150634766,0.0000711973926512159
905,0.000321388244628906,0.0000557359205606506
906,0.000562191009521484,0.0000679689512767086
907,0.000322341918945312,0.0000851164344920985
908,0.000356197357177734,0.0000790486138305467
909,0.000372409820556641,0.0000749696597516706
910,0.000370502471923828,0.0000704977573958078
911,0.000294685363769531,0.0000532020788950495
912,0.000383853912353516,0.0000715271631700025
913,0.000262737274169922,0.0000720513411236729
914,0.000284194946289062,0.0000641412447920201
915,0.000378131866455078,0.0000818897539979651
916,0.000322341918945312,0.0000909997212063999
917,0.000305652618408203,0.0000966298471268157
918,0.000302314758300781,0.0000814247444100944
919,0.000281333923339844,0.0000848689771983303
920,0.000365734100341797,0.0000855068880708015
921,0.000376701354980469,0.0000694170750152181
922,0.000513553619384766,0.000067767938559487
923,0.000308513641357422,0.0000912990632030192
924,0.000293254852294922,0.0000849493126000281
925,0.000310897827148437,0.0000889962617776137
926,0.000279903411865234,0.000119195937362587
927,0.000437259674072266,0.0000786058498470046
928,0.000451087951660156,0.0000785479769513646
929,0.000389575958251953,0.0000731925622390554
930,0.000349998474121094,0.0000853645062322751
931,0.000404834747314453,0.0000860093165334172
932,0.000257968902587891,0.0000990628478902656
933,0.000362396240234375,0.0000623928256874424
934,0.000291824340820312,0.0000741983746689035
935,0.000309467315673828,0.0000773329322572724
936,0.000283241271972656,0.0000920159819061617
937,0.000188350677490234,0.000104378336030701
938,0.000250816345214844,0.0000790140897582214
939,0.000418663024902344,0.000105468359947587
940,0.000360012054443359,0.0000749347735617187
941,0.000272750854492187,0.000078096552229207
942,0.000347614288330078,0.00010590079871069
943,0.000277042388916016,0.0000844823038994739
944,0.000123023986816406,0.0000767085611049732
945,0.000347137451171875,0.000104360907689282
946,0.000257968902587891,0.000107058172185697
947,0.000417709350585938,0.0000895489518952171
948,0.000237941741943359,0.0000916371353844578
949,0.0004119873046875,0.0000951239338333884
950,0.000287532806396484,0.000112721318884755
951,0.000472068786621094,0.000128062517788654
952,0.000282764434814453,0.0000922824665906304
953,0.000280380249023437,0.0000796746235930839
954,0.000360965728759766,0.0000831817787584095
955,0.000328540802001953,0.0000886609424009435
956,0.00031280517578125,0.000136621959305544
957,0.000211715698242187,0.00010949825867781
958,0.000486373901367188,0.000106175264673442
959,0.000286579132080078,0.000129944906145321
960,0.000326633453369141,0.000129313454778677
961,0.000396251678466797,0.000113617397653766
962,0.000263214111328125,0.000107130358170187
963,0.000586509704589844,0.000135659962001967
964,0.000196456909179687,0.0000970899471445191
965,0.000315189361572266,0.0000727782231814579
966,0.000434398651123047,0.000105700935019183
967,0.000296115875244141,0.000144197322693359
968,0.000430583953857422,0.000158367376362969
969,0.000316619873046875,0.000124047333140605
970,0.000592708587646484,0.000105220145431765
971,0.000362396240234375,0.000131319949133087
972,0.000187397003173828,0.00013305038472439
973,0.000369548797607422,0.000137305920021866
974,0.000411510467529297,0.000133306477629338
975,0.000298976898193359,0.000124186559892621
976,0.000563144683837891,0.000169914683924256
977,0.000491142272949219,0.000170814225190929
978,0.000254154205322266,0.000152805292704855
979,0.000241279602050781,0.000146400656221141
980,0.000326156616210937,0.000168003745716639
981,0.000305652618408203,0.000162877410821803
982,0.000372409820556641,0.00016451089277205
983,0.000555038452148438,0.000175289386457642
984,0.000342845916748047,0.000231536726463219
985,0.000538349151611328,0.000167042801252833
986,0.000285148620605469,0.000159369222379074
987,0.000609397888183594,0.000202574433095577
988,0.000526905059814453,0.000138565301028534
989,0.000371456146240234,0.000158269716232228
990,0.000478744506835938,0.000218530885232941
991,0.0000457763671875,0.000198556733284099
992,0.000498771667480469,0.000201412764436318
993,0.000269889831542969,0.000160894212750375
994,0.000121116638183594,0.000158082845118042
995,0.000166416168212891,0.000156126126904552
996,0.000435352325439453,0.000167015575631064
997,0.000260829925537109,0.000207782851778391
998,0.000508785247802734,0.000163462671100734
999,0.000399112701416016,0.00015871730923156
1000,0.000555992126464844,0.000250233673248951
1001,0.000372886657714844,0.000311914198519487
1002,0.00060272216796875,0.000238067368271424
1003,0.000552177429199219,0.00019467106932843
1004,0.000132083892822266,0.000306869811844647
1005,0.000609397888183594,0.000204211045405708
1006,0.000730037689208984,0.000269105195293528
1007,0.000274181365966797,0.00026546428662284
1008,0.000580787658691406,0.000259160885815216
1009,0.000483512878417969,0.000250872544059103
1010,0.000192642211914062,0.000280029700544178
1011,0.0000653266906738281,0.00025102476156275
1012,0.000436782836914063,0.00032325479930868
1013,0.000511646270751953,0.000289005805187402
1014,0.000218868255615234,0.000210076940449992
1015,0.000658988952636719,0.000244780536303033
1016,0.000254631042480469,0.000306442730289786
1017,0.000790596008300781,0.000242176950469133
1018,0.000608921051025391,0.000340198500569901
1019,0.000654220581054688,0.000395010013842894
1020,0.000667095184326172,0.000311330482538001
1021,0.000497817993164063,0.000276453719055076
1022,0.000894069671630859,0.000376033190388881
1023,0.000332355499267578,0.000398457866152868
1024,0.000663280487060547,0.000339475908793321
1025,0.000993251800537109,0.000362466504161847
1026,0.000264167785644531,0.000308990478515625
1027,0.000592231750488281,0.00024396547352735
1028,0.00135898590087891,0.000304142872886939
1029,0.000664710998535156,0.000351666676795337
1030,0.000872135162353516,0.000498544593893571
1031,0.00147199630737305,0.000469502302315229
1032,-0.0000233650207519531,0.000496629047887445
1033,0.000599861145019531,0.000411218349434017
1034,0.000729084014892578,0.000369887965439679
1035,0.000143527984619141,0.000572852721312294
1036,0.00131511688232422,0.000480220237580158
1037,0.000758171081542969,0.000430866636589433
1038,0.00115680694580078,0.000500423729618176
1039,0.001190185546875,0.000484864379462836
1040,0.000485897064208984,0.000559500491860935
1041,0.000281333923339844,0.00061436762381605
1042,0.000779628753662109,0.000544754263179358
1043,0.000863075256347656,0.000615468037601968
1044,0.000852108001708984,0.000675416901249941
1045,0.000457286834716797,0.000744657828597905
1046,0.0013575553894043,0.000662748073745239
1047,0.00198698043823242,0.000710210170052254
1048,0.000431537628173828,0.000794391815034217
1049,0.002166748046875,0.000729615078575077
1050,0.00109386444091797,0.000584620246800136
1051,-0.0000295639038085937,0.000650000235954114
1052,0.00225925445556641,0.000616826049677605
1053,0.00150585174560547,0.000839302753703801
1054,0.00161457061767578,0.000792723096182894
1055,0.000429153442382813,0.00123112520993024
1056,0.00254535675048828,0.000645056171228461
1057,0.00195980072021484,0.000939531360707418
1058,0.000636577606201172,0.000968317151466703
1059,0.00197124481201172,0.000827147415142486
1060,0.00134754180908203,0.000957830907565431
1061,0.000771999359130859,0.000936133237783334
1062,0.00241231918334961,0.00125373030405557
1063,0.00102758407592773,0.00123523172543645
1064,0.00142478942871094,0.00131586598451093
1065,0.00263309478759766,0.00136508609856073
1066,0.00148677825927734,0.00101267100776781
1067,-0.000197887420654297,0.000871422483229057
1068,0.00282669067382812,0.00165654518987696
1069,-0.0000514984130859375,0.00147640119408226
1070,-0.000825881958007813,0.00159948213884017
1071,0.000474452972412109,0.00129623390633332
1072,0.00101947784423828,0.00110470892940709
1073,-0.00218820571899414,0.00130741201248301
1074,0.000501632690429688,0.00114659418688199
1075,0.00120067596435547,0.00104439138155074
1076,-0.00164222717285156,0.00131309837086897
1077,0.00203990936279297,0.00118567762329483
1078,0.00137519836425781,0.00150571856353688
1079,0.00141334533691406,0.00153781040690729
1080,0.00329971313476562,0.00133009911127101
1081,0.000278472900390625,0.00166415266455363
1082,0.00215911865234375,0.00188953473244348
1083,-0.0000491142272949219,0.00148442218103214
1084,0.00174665451049805,0.00257349327932566
1085,0.000515460968017578,0.00181915869389514
1086,0.00170421600341797,0.00219631174363315
1087,0.00168704986572266,0.00164246529725762
1088,-0.0000176429748535156,0.00178178625023944
1089,0.00217485427856445,0.00225499917015517
1090,-0.00113010406494141,0.00221830468007092
1091,-0.00268888473510742,0.00270166760499976
1092,0.00518321990966797,0.002393636663956
1093,0.000660419464111328,0.00307304586796243
1094,0.0000705718994140625,0.00340534330689648
1095,0.00304508209228516,0.00335388044751237
1096,-0.000956535339355469,0.00245220656422914
1097,-0.00129985809326172,0.00335075503405977
1098,0.00379562377929687,0.00341817310267319
1099,0.0012049674987793,0.00395647189224655
1100,0.00196409225463867,0.00204684015055102
