Wavelength (nm),Absorbance (AU),Std.Dev.
190,0.462328433990479,0.161794333371213
191,0.693881034851074,0.425906661576219
192,1.46167421340942,0.841250638465582
193,1.04416227340698,0.396469942779202
194,0.800012111663818,0.153652729806382
195,1.01223230361938,0.20872410048212
196,1.36673641204834,0.358024381180292
197,1.19257068634033,0.315845133243112
198,1.22006845474243,0.327199447982061
199,1.72686004638672,0.304399403057942
200,1.79909086227417,0.200373872350422
201,1.9344334602356,0.238541257988414
202,2.51792430877686,0.254214056214351
203,2.97499561309814,0.479841116994567
204,3.31993961334229,0.610825597168496
205,3.33447599411011,0.416377666701908
206,3.59492683410645,0.435156951301051
207,3.60371017456055,0.396065627083481
208,3.99999952316284,0.5859375
209,3.48764038085937,0.163065469336825
210,3.63699197769165,0.207445414153978
211,3.89744710922241,0.384820150007198
212,3.86177968978882,0.314313585110724
213,3.61957550048828,0.475071309408848
214,3.96589517593384,0.273060566090943
215,3.43396329879761,0.336198572246327
216,3.89893484115601,0.426855010741718
217,3.87818384170532,0.617657060301771
218,3.92993402481079,0.38572117229147
219,3.5720911026001,0.404952103408153
220,3.77589130401611,0.387694082570467
221,3.63245916366577,0.180228042259791
222,3.31411600112915,0.118407951433367
223,3.3904767036438,0.122961589987706
224,3.44223737716675,0.0784082998203181
225,3.24268674850464,0.0698003127782421
226,3.0610203742981,0.042004960357571
227,2.92786312103272,0.0188952857137591
228,2.8774037361145,0.0189275914321523
229,2.679603099823,0.0169207243101053
230,2.5519905090332,0.0132002548619433
231,2.4761815071106,0.00927272480874955
232,2.36595821380615,0.00518727017088858
233,2.26594543457031,0.00373899494083008
234,2.17635774612427,0.00322217070649793
235,2.100905418396,0.00361063060966744
236,2.0522985458374,0.00305678906552564
237,2.00846815109253,0.00200250897017981
238,1.97745656967163,0.00246928509816253
239,1.9564094543457,0.00344152507511893
240,1.95289897918701,0.00373107815303631
241,1.96361303329468,0.00389179894534283
242,1.98563814163208,0.0027259048335497
243,2.0010290145874,0.00351104703171259
244,2.048264503479,0.00357427159254691
245,2.11284875869751,0.0033590136932538
246,2.18750476837158,0.00351720880224894
247,2.22506427764893,0.00870409264655541
248,2.34214210510254,0.0107262232671942
249,2.43679523468018,0.0165332060091182
250,2.51738786697388,0.0255509231579772
251,2.67009449005127,0.0290393959007798
252,2.82554864883423,0.0334784369461366
253,2.9535436630249,0.0476693557478701
254,3.01956462860107,0.0591969279239621
255,3.10491228103638,0.0708378135909811
256,3.0283465385437,0.0743679754963045
257,3.26131153106689,0.131397563996517
258,3.40575361251831,0.0882452697350699
259,3.18009567260742,0.0658763612899699
260,3.3145260810852,0.0814625234737599
261,3.30046415328979,0.120790162541075
262,3.25053215026855,0.180946253431397
263,3.59935426712036,0.143972605960613
264,3.24493169784546,0.0685335392950107
265,3.07141876220703,0.0757339802033822
266,3.10882568359375,0.111012865712762
267,3.08401012420654,0.0975096555966142
268,3.20156955718994,0.108319227816423
269,3.07945537567139,0.0668107224773049
270,2.98674774169922,0.0707013714820537
271,2.9774661064148,0.0673509605424179
272,3.02605867385864,0.0759712903858466
273,2.85184955596924,0.0537652867779657
274,2.74401235580444,0.0386074261237161
275,2.61602115631104,0.0291801671163625
276,2.41584205627441,0.0183325063634529
277,2.16321802139282,0.00730257013814193
278,1.92171096801758,0.00516721268109328
279,1.69244766235352,0.00291390938650626
280,1.49693584442139,0.00134934637264613
281,1.33266830444336,0.000715741310600015
282,1.2016544342041,0.000405678302692188
283,1.09304141998291,0.000559279373688808
284,1.00369262695313,0.000494455991724027
285,0.927963733673096,0.000368182517659179
286,0.865241050720215,0.000288684635048104
287,0.813473701477051,0.000507283026424539
288,0.768693447113037,0.000443785557111447
289,0.731949806213379,0.000316596892108863
290,0.700791358947754,0.000313049314174998
291,0.67311954498291,0.000208215737743601
292,0.650279521942139,0.000219966174977699
293,0.630985736846924,0.000209613189095176
294,0.614182949066162,0.000189845874439919
295,0.599453449249268,0.000168101161162215
296,0.587004661560059,0.000190610845301166
297,0.576825618743897,0.000158054076105607
298,0.567996501922607,0.000190276548970641
299,0.559534072875977,0.000156994606334251
300,0.553079128265381,0.000250037328812862
301,0.547756671905518,0.000293545849953247
302,0.542837142944336,0.000340812833315919
303,0.539299964904785,0.000345230102539062
304,0.536197185516357,0.000290831578864611
305,0.533875942230225,0.000304465659777099
306,0.532017230987549,0.00038179383814115
307,0.531553268432617,0.000373791672011515
308,0.530280113220215,0.000276927054029564
309,0.53002405166626,0.000287718973575557
310,0.529633522033691,0.000186681595189604
311,0.529830932617188,0.000209139712148754
312,0.530576705932617,0.00035444881171208
313,0.531015872955322,0.000298596022418591
314,0.532002449035645,0.0002352426717755
315,0.532746315002441,0.00027775999813147
316,0.533721446990967,0.000255520656016055
317,0.534007072448731,0.000225728888652132
318,0.53466796875,0.000235952979795399
319,0.535643100738525,0.000231017638071285
320,0.535425186157227,0.000340855528315562
321,0.534871101379395,0.00041862717911672
322,0.534517765045166,0.000429378026901463
323,0.534277439117432,0.000274293710663339
324,0.533123970031738,0.000213640076094755
325,0.531356334686279,0.000262008893150253
326,0.530064105987549,0.000204095216360404
327,0.528356075286865,0.000256529527815965
328,0.524971961975098,0.000238243038404577
329,0.521293640136719,0.000228324848200156
330,0.518388271331787,0.00030211463104445
331,0.514348983764648,0.000354715569184768
332,0.509590148925781,0.000361219805513418
333,0.505009174346924,0.00027812648808625
334,0.499674320220947,0.0002651832014685
335,0.493567943572998,0.000280769234017672
336,0.487503528594971,0.000335481967257551
337,0.481266498565674,0.00021396762441511
338,0.474355220794678,0.000190806375448962
339,0.467477321624756,0.000230473704709119
340,0.459482192993164,0.000208202633210777
341,0.451396465301514,0.000221667229779199
342,0.443532943725586,0.000266987933708913
343,0.434356212615967,0.000191187321923432
344,0.425873279571533,0.000229179665388068
345,0.416940689086914,0.000227210779370247
346,0.407699584960938,0.000191937470000035
347,0.398218154907227,0.000151987683482349
348,0.38883638381958,0.000164839508947849
349,0.378578662872314,0.00015758151491373
350,0.369002342224121,0.000182712650145733
351,0.35886287689209,0.000174175501355207
352,0.348917961120605,0.000224646482304923
353,0.339368343353271,0.000158378861831045
354,0.32872486114502,0.000169898625200056
355,0.319040298461914,0.000135223485309116
356,0.30897331237793,0.000187585580500194
357,0.299159526824951,0.000198373427545907
358,0.288698673248291,0.000199397769252079
359,0.278579711914062,0.00015677141106085
360,0.269144058227539,0.000213056050290732
361,0.25956916809082,0.000288041220443418
362,0.249527454376221,0.000327275682015017
363,0.240514755249023,0.000317806868430006
364,0.232023239135742,0.000302319270921596
365,0.223784923553467,0.000302319270921596
366,0.217077732086182,0.000188132654832156
367,0.210643291473389,0.000215640082341494
368,0.203629016876221,0.000170312989885223
369,0.196064472198486,0.000162057301620122
370,0.188912391662598,0.000250000951809859
371,0.182266712188721,0.000232719983029336
372,0.175155639648437,0.000181032406169961
373,0.168357372283936,0.000189951240608572
374,0.162082195281982,0.000159796662189724
375,0.155776977539062,0.000186345130641212
376,0.149277210235596,0.000232160451017109
377,0.14306640625,0.000181233252080923
378,0.137337684631348,0.000205631290602444
379,0.131303310394287,0.000157425605060328
380,0.12582540512085,0.000131278387802011
381,0.120524406433105,0.000149060241393581
382,0.115306377410889,0.000134610040277173
383,0.110288619995117,0.000123727987214866
384,0.105257987976074,0.000178940410390213
385,0.100472927093506,0.000172171893219785
386,0.0961451530456543,0.000166595739199124
387,0.091825008392334,0.000167067300519011
388,0.0872759819030762,0.000176612656092377
389,0.0835070610046387,0.000132340996943658
390,0.0794825553894043,0.000171048341299568
391,0.0757637023925781,0.000171544777159099
392,0.0720205307006836,0.000195296108034824
393,0.0686545372009277,0.000157743036441567
394,0.0652689933776856,0.000133728808866905
395,0.0619010925292969,0.000150084826943999
396,0.0589613914489746,0.000176091772556943
397,0.0562219619750977,0.000193113750808939
398,0.0527462959289551,0.00019660962289459
399,0.0502691268920898,0.000164405818151274
400,0.0476751327514648,0.000176700178584699
401,0.0452613830566406,0.000151912865033829
402,0.0431466102600098,0.000196572612282395
403,0.0407223701477051,0.000167860225651067
404,0.0384969711303711,0.000156213483231344
405,0.0360369682312012,0.000134329352277062
406,0.0342683792114258,0.00013598472810006
407,0.0326948165893555,0.000153004554257823
408,0.0304698944091797,0.000143859486787778
409,0.0286579132080078,0.000192708296818773
410,0.0270419120788574,0.000215775004977777
411,0.0257744789123535,0.00022710267622408
412,0.024134635925293,0.00018740124976707
413,0.0225386619567871,0.000159175071546993
414,0.021303653717041,0.000174060585732267
415,0.0201363563537598,0.000158272589449127
416,0.0188031196594238,0.000147054600485857
417,0.017695426940918,0.00016814443879984
418,0.0164756774902344,0.00015811448498583
419,0.0156145095825195,0.000106048841270299
420,0.0144963264465332,0.000124468199753994
421,0.0134425163269043,0.000133156296175071
422,0.0126872062683105,0.000145331329930173
423,0.0118403434753418,0.000130287409652237
424,0.0114841461181641,0.000121060305733832
425,0.01055908203125,0.000225692623422864
426,0.00980424880981445,0.00023839568981923
427,0.00895023345947266,0.000213495284430481
428,0.00846529006958008,0.000164350488736585
429,0.0079503059387207,0.000158183495457575
430,0.00702476501464844,0.00014598383421442
431,0.006988525390625,0.000140866445270979
432,0.00643825531005859,0.000129119895361635
433,0.00582504272460938,0.000180388196509727
434,0.00529909133911133,0.000192401282094381
435,0.00505161285400391,0.000139095940957368
436,0.00460004806518555,0.000134498511583822
437,0.00434207916259766,0.000191006467081403
438,0.0038299560546875,0.000131714127702075
439,0.00335121154785156,0.00013259160073425
440,0.00314521789550781,0.000192349277274761
441,0.00299215316772461,0.000168859611498082
442,0.00251913070678711,0.000113254597165429
443,0.00210094451904297,0.000123216050320952
444,0.00249147415161133,0.000139513784668908
445,0.00196647644042969,0.000117385260911286
446,0.00166845321655273,0.00019648931291615
447,0.00167655944824219,0.000138568582816705
448,0.00140523910522461,0.000117261228241708
449,0.00111865997314453,0.000125899458547281
450,0.000918388366699219,0.000149471526884059
451,0.00101900100708008,0.000129534812899887
452,0.000995159149169922,0.000122051684627205
453,0.000741958618164063,0.000134420724741845
454,0.000375270843505859,0.000146797709327522
455,0.000236988067626953,0.000179265406011435
456,0.000298500061035156,0.000158393217494962
457,0.000379085540771484,0.000123153293284286
458,0.000102996826171875,0.000132934126752493
459,-0.0000863075256347656,0.000163206529681945
460,-0.000213623046875,0.000147480730242631
461,-0.00000095367431640625,0.000109467106672321
462,-0.000314712524414062,0.000131841809530529
463,-0.000515937805175781,0.000116361945551991
464,-0.000556468963623047,0.0000827047899360052
465,-0.000344753265380859,0.0000901840139415208
466,-0.000300407409667969,0.0000991225063406537
467,-0.000538825988769531,0.000120304795983633
468,-0.000648021697998047,0.000113356940210994
469,-0.000551700592041016,0.000133043548832346
470,-0.000723838806152344,0.000102527751185186
471,-0.000583648681640625,0.0000830710000523774
472,-0.000752925872802734,0.000113290728797283
473,-0.000834465026855469,0.000124179236060462
474,-0.000829219818115234,0.000114381297793842
475,-0.00105667114257812,0.000100317291007669
476,-0.000751972198486328,0.000120036118784463
477,-0.00102376937866211,0.00010575469893911
478,-0.00109386444091797,0.000102824490799178
479,-0.000849723815917969,0.0000846704906488979
480,-0.00110530853271484,0.0000978504239792271
481,-0.00107240676879883,0.000114522348678834
482,-0.000996112823486328,0.000145343845545932
483,-0.000980377197265625,0.000113057677929085
484,-0.00100517272949219,0.0000750499879285783
485,-0.00122356414794922,0.0000893175950000964
486,-0.00109529495239258,0.000073704897080789
487,-0.000823497772216797,0.0000682993288795238
488,-0.000949859619140625,0.0000823687021965904
489,-0.00111961364746094,0.000121583190183784
490,-0.0010228157043457,0.000121439106507122
491,-0.00106668472290039,0.000111357557046314
492,-0.00116300582885742,0.0000964461355492413
493,-0.001068115234375,0.0000913762338336745
494,-0.00105857849121094,0.000100301423936359
495,-0.000982284545898438,0.0000872598971076803
496,-0.00100946426391602,0.000104221376038095
497,-0.00115251541137695,0.00010132312763438
498,-0.000904083251953125,0.0000787041361054168
499,-0.00100088119506836,0.0000743850683397619
500,-0.00108766555786133,0.0000849252199588516
501,-0.000927925109863281,0.0000948750181209294
502,-0.00102043151855469,0.000111724482699552
503,-0.00101709365844727,0.000104912844212975
504,-0.000855445861816406,0.0000796432258502871
505,-0.000839710235595703,0.0000943535314034632
506,-0.00106525421142578,0.0000968766010324209
507,-0.00083160400390625,0.000101506972550586
508,-0.000843048095703125,0.0000635822612792331
509,-0.000947475433349609,0.0000647445834064243
510,-0.000759601593017578,0.0000871973377278325
511,-0.000872135162353516,0.0000914682554857649
512,-0.000840663909912109,0.0000914881398893663
513,-0.000802040100097656,0.0000752451453066038
514,-0.000753879547119141,0.0000825506900438095
515,-0.000771522521972656,0.000075171075435404
516,-0.000799179077148438,0.000101026479416516
517,-0.000784873962402344,0.0000947359156661045
518,-0.000690937042236328,0.0000848622791487095
519,-0.000664710998535156,0.000117183641156599
520,-0.000604629516601563,0.000128197383986713
521,-0.000707626342773438,0.000114004973732228
522,-0.000792503356933594,0.000113338886388745
523,-0.000639438629150391,0.000104958346858288
524,-0.000668048858642578,0.000077510609765609
525,-0.000683307647705078,0.0000755903463670357
526,-0.000616073608398438,0.0000792095272058895
527,-0.000673770904541016,0.0000836084701320789
528,-0.000573158264160156,0.000091184431585705
529,-0.000590801239013672,0.000122211791544495
530,-0.000402927398681641,0.000093282316433569
531,-0.000519752502441406,0.0000960397861202853
532,-0.000577926635742188,0.0000872103746327013
533,-0.000618934631347656,0.0000830039140017227
534,-0.000509262084960938,0.0000872025527236643
535,-0.000443458557128906,0.0000986972289547125
536,-0.000431537628173828,0.0000764472732013209
537,-0.000418186187744141,0.0000800504359452003
538,-0.000482559204101563,0.0000819119636478966
539,-0.000467777252197266,0.0000842883020525341
540,-0.000360965728759766,0.0000752678051848436
541,-0.000396728515625,0.0000520670369073338
542,-0.0003509521484375,0.0000570074726953416
543,-0.000252246856689453,0.0000600549851376266
544,-0.000298500061035156,0.0000814177630119619
545,-0.000212669372558594,0.0000896327030057175
546,-0.000252723693847656,0.0000976433969026355
547,-0.000375270843505859,0.0000673961713625444
548,-0.000396728515625,0.0000801157380549352
549,-0.000307559967041016,0.0000882264722468467
550,-0.000287055969238281,0.0000951454440007342
551,-0.00041961669921875,0.0000644912340648526
552,-0.000208854675292969,0.0000634354735774418
553,-0.000252246856689453,0.000072695384754822
554,-0.000162601470947266,0.0000959545184626458
555,-0.000141143798828125,0.0000916296913637539
556,-0.000298976898193359,0.0000842748131184211
557,-0.000192165374755859,0.0000788628692376756
558,-0.0000796318054199219,0.000058806801618978
559,-0.000205516815185547,0.0000573880998287754
560,-0.000179290771484375,0.0000786680157256676
561,-0.000111103057861328,0.0000674248416150308
562,-0.000195503234863281,0.0000668593034604306
563,-0.000188350677490234,0.0000814973154979491
564,-0.000217437744140625,0.0000865219676746488
565,-0.000170230865478516,0.0000717081283408561
566,-0.0000810623168945313,0.0000730728635959264
567,-0.000181674957275391,0.0000661825240054988
568,-0.000123023986816406,0.0000569416245976569
569,-0.000198841094970703,0.0000589516152646565
570,-0.000164985656738281,0.0000752542100766766
571,-0.00000333786010742187,0.0000863220139456072
572,0.0000481605529785156,0.0000887250324947564
573,-0.0000557899475097656,0.0000809725095639319
574,-0.0000295639038085937,0.0000616836370917527
575,0.0000214576721191406,0.0000733415232999734
576,0.00006866455078125,0.0000816199811125392
577,0.0000615119934082031,0.0000851097559171126
578,-0.0000519752502441406,0.0000613509887718793
579,0.0000715255737304688,0.0000619723224666595
580,-0.0000486373901367188,0.0000525614292373504
581,-0.0000543594360351563,0.0000534589536620947
582,0.0000276565551757812,0.0000605029130521689
583,0.000250816345214844,0.0000902923612865038
584,0.0000362396240234375,0.0000685286501589263
585,-0.0000529289245605469,0.0000761447878964964
586,0.000130653381347656,0.0000613621061025444
587,0.0000557899475097656,0.0000679170799852059
588,0.0000729560852050781,0.0000757465994361101
589,0.000134468078613281,0.0000715033178671907
590,-0.0000238418579101562,0.0000683874924982035
591,0.0000557899475097656,0.0000685186956279223
592,-0.0000448226928710938,0.000049212505564984
593,0.000011444091796875,0.0000517340848342974
594,0.000116825103759766,0.0000480471115341509
595,0.000121116638183594,0.0000821918443100888
596,0.0000524520874023438,0.0000987870343214307
597,0.0000219345092773437,0.0000734499502875364
598,0.000132560729980469,0.0000810440828347674
599,0.0000553131103515625,0.0000740449960224366
600,0.0000510215759277344,0.0000620126678411063
601,0.000120162963867187,0.000080108642578125
602,0.000158786773681641,0.0000691726219398063
603,0.000133514404296875,0.000073358572439698
604,0.000168323516845703,0.0000688134010551778
605,0.000123500823974609,0.0000628448943228401
606,0.000133991241455078,0.0000741830510747067
607,0.000161170959472656,0.000068440668376383
608,0.000113964080810547,0.0000617223292824514
609,0.000125885009765625,0.0000577622827929609
610,0.00016021728515625,0.0000695087277217274
611,0.000157833099365234,0.0000571449098933203
612,0.000142097473144531,0.0000636162247324854
613,0.0000925064086914063,0.0000692383316743342
614,0.000135421752929687,0.0000681343403250114
615,0.0000824928283691406,0.0000882290493685299
616,0.0000791549682617188,0.0000676940843418603
617,0.000139236450195312,0.000060047412476965
618,0.0000963211059570313,0.0000622103474489514
619,0.000173568725585937,0.0000437691318447939
620,0.0000848770141601563,0.000063482052767344
621,0.000192165374755859,0.0000722656113070398
622,0.000057220458984375,0.0000793887328883069
623,0.000225543975830078,0.0000728906075848048
624,0.000170230865478516,0.0000715208051999304
625,0.000101566314697266,0.0000676571270009535
626,0.000218391418457031,0.0000699213041167023
627,0.000237941741943359,0.0000904332701959969
628,0.000122547149658203,0.0000799722873429742
629,0.000138282775878906,0.0000802291803405872
630,0.0000672340393066406,0.0000617168033117807
631,0.000103950500488281,0.0000591230005955933
632,0.000180721282958984,0.0000807306573298199
633,0.000026702880859375,0.0000732810443881517
634,0.0000758171081542969,0.0000503306081635524
635,0.000180721282958984,0.0000441737578507174
636,0.000180721282958984,0.0000679856755089631
637,0.000258922576904297,0.0000760147828651694
638,0.0002288818359375,0.0000601249870342767
639,0.000180244445800781,0.0000563858679433306
640,0.000136852264404297,0.0000681927152279845
641,0.000202655792236328,0.000070389628224501
642,0.000244617462158203,0.0000813521085843886
643,0.000146389007568359,0.0000942715624055005
644,0.000225543975830078,0.0000897873099970995
645,0.000179290771484375,0.0000914384207726628
646,0.00017547607421875,0.0000931188621424419
647,0.000248908996582031,0.0000716097654113684
648,0.000174999237060547,0.0000987893359496581
649,0.000244140625,0.0000756685132337848
650,0.000151157379150391,0.0000677394135206371
651,0.000191211700439453,0.0000681560282682701
652,0.000192165374755859,0.000063610863287553
653,0.000144481658935547,0.0000690179578119761
654,0.000192165374755859,0.0000784364514122291
655,0.000269412994384766,0.0000877458112838369
656,-0.0000557899475097656,0.0000546129489006645
657,0.00115203857421875,0.0000503464172890301
658,0.000459671020507813,0.0000543500239606272
659,0.000333786010742187,0.0000797416591716364
660,0.000187873840332031,0.0000702878027827769
661,0.000174522399902344,0.0000754654122683143
662,0.000256538391113281,0.0000825809823601588
663,0.000257968902587891,0.0000590614361644918
664,0.000179767608642578,0.0000569046764231622
665,0.000203609466552734,0.0000716748269824517
666,0.000233650207519531,0.0000722215488249023
667,0.000252723693847656,0.0000815447309048066
668,0.000216007232666016,0.0000594480364470868
669,0.000202178955078125,0.0000733787163159126
670,0.000313282012939453,0.0000727750989150767
671,0.000269412994384766,0.0000454423560169962
672,0.000274658203125,0.0000500520045156388
673,0.000300884246826172,0.0000490632765102118
674,0.000244140625,0.0000539226720551574
675,0.000298976898193359,0.0000725967934767003
676,0.000295162200927734,0.0000648445940689869
677,0.00025177001953125,0.000064072082142908
678,0.000319957733154297,0.0000725231539603239
679,0.000215053558349609,0.0000637750759021778
680,0.000249862670898437,0.0000632254425683796
681,0.000284194946289062,0.0000749469097304859
682,0.000319480895996094,0.0000708741083745812
683,0.000264167785644531,0.0000602515402469235
684,0.000295639038085937,0.0000484852186795891
685,0.000241756439208984,0.0000554670460942565
686,0.000384807586669922,0.0000556838828748441
687,0.000310420989990234,0.0000695790219645067
688,0.000389575958251953,0.0000726734871407406
689,0.000270366668701172,0.0000722089546058119
690,0.000301361083984375,0.0000627416962071371
691,0.000277519226074219,0.0000666890477640041
692,0.000344276428222656,0.0000646936414486275
693,0.000390529632568359,0.0000455073558442694
694,0.000239372253417969,0.0000596446856474641
695,0.000206470489501953,0.000062765247555709
696,0.000353336334228516,0.0000744812925066689
697,0.000284194946289062,0.0000662803649902344
698,0.000401973724365234,0.0000516857167192498
699,0.000312328338623047,0.0000665935144428104
700,0.000233173370361328,0.000079381572428579
701,0.00025177001953125,0.000066600342796014
702,0.000290870666503906,0.0000522490385960275
703,0.000269889831542969,0.0000555827294677485
704,0.000339508056640625,0.0000640419109462313
705,0.000290870666503906,0.0000647726721641042
706,0.000227451324462891,0.0000480660370342582
707,0.000237941741943359,0.0000548497473706773
708,0.000216960906982422,0.0000484582462862615
709,0.000273227691650391,0.0000450200948788535
710,0.000311374664306641,0.0000515182774697374
711,0.000279903411865234,0.0000510405122073714
712,0.000226497650146484,0.0000724164791357789
713,0.000328540802001953,0.0000798342751977447
714,0.000259876251220703,0.0000579921031993223
715,0.0002899169921875,0.0000573316130263868
716,0.000303268432617187,0.0000744064622419804
717,0.000267982482910156,0.000068157696285751
718,0.000268459320068359,0.0000730650841765863
719,0.000330924987792969,0.0000726906929642665
720,0.000234127044677734,0.0000571488886511941
721,0.000359535217285156,0.0000476085547318532
722,0.000305652618408203,0.0000732903520845064
723,0.000386238098144531,0.0000526403170832649
724,0.000325679779052734,0.0000425675658574222
725,0.000235557556152344,0.000043791204353023
726,0.000352382659912109,0.0000504084765680916
727,0.000370502471923828,0.0000486852840153775
728,0.000385761260986328,0.0000517615465822393
729,0.000316619873046875,0.0000555428305761758
730,0.000358104705810547,0.0000641890829713808
731,0.000377178192138672,0.0000605789660002031
732,0.0003509521484375,0.0000548145002179587
733,0.000342369079589844,0.0000424431948269433
734,0.000377178192138672,0.0000421347084701052
735,0.000341415405273437,0.0000466204350426061
736,0.0003509521484375,0.0000566804758905141
737,0.000359535217285156,0.000063610863287553
738,0.000331878662109375,0.000054817611172485
739,0.000301837921142578,0.0000474818247212275
740,0.000357627868652344,0.0000496712366690675
741,0.000349998474121094,0.0000518460373711424
742,0.000314235687255859,0.0000505930741436235
743,0.000381946563720703,0.000058502497806583
744,0.000370502471923828,0.0000413111360828777
745,0.000367641448974609,0.0000533152136219444
746,0.000385761260986328,0.0000493209617376772
747,0.000375270843505859,0.0000719487072073993
748,0.00029754638671875,0.0000651890634541869
749,0.000314712524414062,0.0000553120826757266
750,0.000327587127685547,0.0000379153011723477
751,0.000362873077392578,0.0000523121006154123
752,0.000315189361572266,0.000053923726210322
753,0.000373363494873047,0.0000436716199564183
754,0.000391483306884766,0.0000545045939027487
755,0.000363826751708984,0.0000421637038798985
756,0.000379562377929687,0.000061801480565561
757,0.000422954559326172,0.0000480707672450687
758,0.000394344329833984,0.000048993712776786
759,0.000438690185546875,0.0000621207374362421
760,0.000470638275146484,0.0000632308366937667
761,0.000440120697021484,0.0000572621670351974
762,0.000417232513427734,0.0000661206551043051
763,0.000411033630371094,0.0000600332111635964
764,0.000387191772460937,0.0000604314676979756
765,0.000470638275146484,0.0000486338838547593
766,0.000417232513427734,0.0000550308094000843
767,0.000462532043457031,0.0000736462602853862
768,0.000486373901367188,0.0000538118708428473
769,0.000439167022705078,0.0000516053696201166
770,0.000446796417236328,0.0000554373185149539
771,0.000446796417236328,0.0000513336849597741
772,0.000437736511230469,0.0000608700889451066
773,0.000491619110107422,0.0000620126678411063
774,0.000439643859863281,0.0000549863751233556
775,0.000364303588867187,0.0000495635469825221
776,0.000432014465332031,0.0000679622604314616
777,0.000432968139648438,0.000050436660088262
778,0.000447750091552734,0.0000393079866118132
779,0.000437259674072266,0.000052916035500436
780,0.000396728515625,0.0000575305562861112
781,0.000366687774658203,0.0000444559555847422
782,0.000378131866455078,0.0000517055091442055
783,0.000418186187744141,0.0000581643612267843
784,0.000342369079589844,0.0000436703183269839
785,0.000421524047851563,0.0000441982005580604
786,0.000460147857666016,0.0000513425428494841
787,0.000420570373535156,0.0000530512144501549
788,0.000444889068603516,0.0000633386227314771
789,0.000357151031494141,0.0000666737034263931
790,0.000416278839111328,0.0000583341617466422
791,0.000429153442382813,0.0000497364242983414
792,0.00038909912109375,0.0000563909082912425
793,0.000472068786621094,0.0000720718503682307
794,0.000433444976806641,0.000051877822905205
795,0.000383377075195312,0.0000609046315248758
796,0.000422954559326172,0.0000602081265909466
797,0.000401020050048828,0.000062799652869764
798,0.000487327575683594,0.0000681893808654551
799,0.000472545623779297,0.0000705445081804815
800,0.000462532043457031,0.0000536309331855869
801,0.000441551208496094,0.0000485192059776487
802,0.000449180603027344,0.0000435360420628102
803,0.000542640686035156,0.0000526111531712448
804,0.000511646270751953,0.0000526446362887764
805,0.00048828125,0.0000632847526601557
806,0.000475406646728516,0.0000681643679475021
807,0.000477313995361328,0.0000710519367495783
808,0.000523090362548828,0.0000500065563953835
809,0.000445842742919922,0.0000555581796946192
810,0.000514984130859375,0.0000577337370621378
811,0.000500202178955078,0.0000483948607178801
812,0.000481605529785156,0.0000466362830042472
813,0.000483036041259766,0.0000552287774269081
814,0.000473976135253906,0.0000623308430257325
815,0.000548839569091797,0.0000664071715646849
816,0.000437259674072266,0.0000469266880001956
817,0.000532627105712891,0.000052792355760521
818,0.000459194183349609,0.0000616320097186084
819,0.000496387481689453,0.0000571409308584032
820,0.000523090362548828,0.0000609102311784089
821,0.000461578369140625,0.00006200533427109
822,0.000566005706787109,0.0000462409130950953
823,0.000431060791015625,0.0000538277135514143
824,0.000369071960449219,0.0000775091430255882
825,0.000508785247802734,0.0000765394195679251
826,0.000429153442382813,0.0000676806476437641
827,0.00043487548828125,0.0000530908444803059
828,0.000505447387695313,0.000059578890004615
829,0.000496387481689453,0.0000546441652215334
830,0.000435352325439453,0.0000520692203320263
831,0.000545978546142578,0.0000474267233142052
832,0.000434398651123047,0.0000500508688155941
833,0.000442028045654297,0.0000613454293510196
834,0.000500679016113281,0.0000647094553134437
835,0.000409603118896484,0.0000616301650839846
836,0.000452518463134766,0.000057837025451875
837,0.000509738922119141,0.0000571379464003708
838,0.0005035400390625,0.0000724651297822714
839,0.000531196594238281,0.0000640277078165498
840,0.000544071197509766,0.0000469763260272053
841,0.000461101531982422,0.0000759040286286312
842,0.000532627105712891,0.0000619429638708428
843,0.000473499298095703,0.000043782117020813
844,0.000549793243408203,0.0000468053988648269
845,0.000483512878417969,0.0000581203665613215
846,0.000524997711181641,0.0000642811154525951
847,0.000574111938476563,0.0000634014132978193
848,0.000504016876220703,0.0000569516064760048
849,0.000591754913330078,0.0000594327354915674
850,0.000537872314453125,0.0000510249181347969
851,0.000485420227050781,0.0000613009358333973
852,0.000477313995361328,0.0000611672610913582
853,0.000504493713378906,0.0000693908662927718
854,0.000542163848876953,0.0000461338410387253
855,0.000449180603027344,0.0000693957811821991
856,0.000544071197509766,0.0000742764758248167
857,0.000564098358154297,0.0000784538424441295
858,0.000460147857666016,0.0000661842417605117
859,0.000547885894775391,0.0000576430846337154
860,0.000492572784423828,0.0000491905545208313
861,0.000483036041259766,0.000057400974999105
862,0.000416278839111328,0.0000451575110940874
863,0.000432014465332031,0.000070033403122981
864,0.000498771667480469,0.0000697699291784373
865,0.000419139862060547,0.0000652134742633009
866,0.000478267669677734,0.0000736215571365871
867,0.000494003295898438,0.0000590585487571374
868,0.000484466552734375,0.0000724635609164082
869,0.000455379486083984,0.0000586848819978443
870,0.000481605529785156,0.0000542778105004058
871,0.000415802001953125,0.0000603740622372758
872,0.000454902648925781,0.0000594738478831885
873,0.000478267669677734,0.0000528268000692121
874,0.000373363494873047,0.0000588483512995553
875,0.000499725341796875,0.000077892484589511
876,0.0004425048828125,0.0000681810442457204
877,0.000409603118896484,0.0000511895294239508
878,0.000513553619384766,0.000072435315520318
879,0.000456809997558594,0.0000673573627734508
880,0.000423431396484375,0.0000486245325334491
881,0.000440597534179688,0.0000636376659952218
882,0.000444889068603516,0.0000749514602871481
883,0.000502109527587891,0.0000624219727024921
884,0.00038909912109375,0.0000578389910596327
885,0.000531196594238281,0.0000529815223467996
886,0.000546932220458984,0.0000606371149181135
887,0.000509738922119141,0.0000584383343219126
888,0.000535011291503906,0.0000503373841110102
889,0.000522613525390625,0.0000784234056074077
890,0.000516891479492188,0.0000780412152033937
891,0.00045013427734375,0.0000593312669948327
892,0.000585079193115234,0.0000708933545686562
893,0.000465869903564453,0.0000695757540396539
894,0.000613212585449219,0.0000746748912971774
895,0.000422000885009766,0.0000598853178661379
896,0.000449180603027344,0.0000491662814383468
897,0.000490188598632813,0.0000518087467384355
898,0.00061798095703125,0.0000611635437337267
899,0.000499725341796875,0.0000560268442474814
900,0.000523090362548828,0.0000680608836983841
901,0.000510215759277344,0.0000745850142012061
902,0.000536918640136719,0.0000812556261899481
903,0.000504016876220703,0.0000890626635662363
904,0.000537395477294922,0.0000943270198164055
905,0.000615596771240234,0.0000811338109406739
906,0.000584125518798828,0.000081161830630327
907,0.000574111938476563,0.0000864246795672982
908,0.000638008117675781,0.0000683941417439653
909,0.000420093536376953,0.0000673455470247748
910,0.000544071197509766,0.0000803679289164272
911,0.00043487548828125,0.0000733074131251458
912,0.000579357147216797,0.0000662031341240257
913,0.000552654266357422,0.0000540111493669285
914,0.000581741333007813,0.0000574524468270012
915,0.000505924224853516,0.0000820437096176267
916,0.000593185424804688,0.0000736817565517955
917,0.000613689422607422,0.0000540553337157489
918,0.000499248504638672,0.0000715223947454351
919,0.00045013427734375,0.0000742856587976929
920,0.000469207763671875,0.000072430606883428
921,0.000494480133056641,0.000057400974999105
922,0.000713348388671875,0.0000692104126599645
923,0.000535011291503906,0.000106029543093494
924,0.0005950927734375,0.0000851244480904303
925,0.000522613525390625,0.0000735953009555178
926,0.000522613525390625,0.000111968431785879
927,0.000527858734130859,0.00010045771852313
928,0.000570297241210938,0.0000930284732472822
929,0.000621795654296875,0.0000909822291889263
930,0.000499725341796875,0.000101703899842944
931,0.000626087188720703,0.0000996030532008889
932,0.000418186187744141,0.000109734724911823
933,0.000480175018310547,0.0000900275626397241
934,0.000514507293701172,0.000100652180716806
935,0.000545024871826172,0.000111687844379622
936,0.000448703765869141,0.000116043003039606
937,0.000410079956054688,0.000107340270306211
938,0.000630855560302734,0.0000995139842447007
939,0.000469684600830078,0.000100349017623641
940,0.000505447387695313,0.0000732236207833706
941,0.00046539306640625,0.000108668667093232
942,0.000522136688232422,0.0000862719531015657
943,0.000591278076171875,0.0000809472332999903
944,0.000640869140625,0.000081016022421616
945,0.000504970550537109,0.000112092235703429
946,0.000494480133056641,0.000121786861346013
947,0.000560283660888672,0.0000948606376709611
948,0.000433444976806641,0.000106528025145366
949,0.000638008117675781,0.000115276307572737
950,0.000573635101318359,0.000114216186483703
951,0.000631809234619141,0.000130482722293755
952,0.000550746917724609,0.000115835121337425
953,0.000522136688232422,0.0000779493856862868
954,0.000618457794189453,0.0000904005787745889
955,0.000469684600830078,0.00010294383063136
956,0.000651359558105469,0.000140128478944423
957,0.000516891479492188,0.0000968742539596768
958,0.000621795654296875,0.0000979874255535719
959,0.000566959381103516,0.000138919286194969
960,0.000557422637939453,0.000115157901363958
961,0.000600337982177734,0.0000984573475107204
962,0.0005340576171875,0.000129538323471128
963,0.000547885894775391,0.00012969970703125
964,0.000481605529785156,0.000104908509598384
965,0.000547885894775391,0.00011569370564552
966,0.000563144683837891,0.000125700642217536
967,0.000589370727539063,0.00014851315097558
968,0.000583171844482422,0.000135592903193123
969,0.000592708587646484,0.000155603881540914
970,0.000725746154785156,0.000138082029706865
971,0.000555038452148438,0.000138525913506127
972,0.000508308410644531,0.000129829369974431
973,0.000519275665283203,0.000147884108675786
974,0.000719070434570313,0.000168011865827763
975,0.000523090362548828,0.000143619045887056
976,0.000522136688232422,0.000175003784494798
977,0.000704288482666016,0.000193400824985607
978,0.000489234924316406,0.000144971043896941
979,0.000568389892578125,0.000135078801841623
980,0.000594615936279297,0.00017104568268925
981,0.000520229339599609,0.000167591811793272
982,0.000599384307861328,0.000166111889270723
983,0.000487327575683594,0.000168625153391269
984,0.000549793243408203,0.000158062707359144
985,0.000737667083740234,0.000131236813308896
986,0.000144481658935547,0.000193094911361959
987,0.000765800476074219,0.000225357902339812
988,0.000588417053222656,0.000125047760506064
989,0.000612735748291016,0.000115325607613298
990,0.000646591186523438,0.000175325702424149
991,0.000155448913574219,0.000190276548970641
992,0.000745773315429688,0.000200897329215387
993,0.000649929046630859,0.000155308431792095
994,0.000171184539794922,0.000170806238303734
995,0.000777721405029297,0.000141581295470395
996,0.000655174255371094,0.000157543995161298
997,0.000651836395263672,0.000210660590710052
998,0.000828266143798828,0.000185351700463661
999,0.000928878784179688,0.000246077543152644
1000,0.000738620758056641,0.000258922137827352
1001,0.000660419464111328,0.000246793519340216
1002,0.000764846801757813,0.000195296108034824
1003,0.000605583190917969,0.000192354005566628
1004,0.000525951385498047,0.000233231383207833
1005,0.000475883483886719,0.000227354836941207
1006,0.000876426696777344,0.000239878950289036
1007,0.000828266143798828,0.000223347185795661
1008,0.000506877899169922,0.000266326252558525
1009,0.000516891479492188,0.000294084460964858
1010,0.000761985778808594,0.000273882246637901
1011,0.000558376312255859,0.00022866318113095
1012,0.000145435333251953,0.00029135647836401
1013,0.000713825225830078,0.000359361895161607
1014,0.000855922698974609,0.000319057867760756
1015,0.00100278854370117,0.000186647488750077
1016,0.000661373138427734,0.000201082857179375
1017,0.00110626220703125,0.000300212069988683
1018,0.000524520874023438,0.00032946376685031
1019,0.00101041793823242,0.000282139352586579
1020,0.00100469589233398,0.000282474404461612
1021,0.00114202499389648,0.000391643284717868
1022,0.00129222869873047,0.000289778927503866
1023,0.000493526458740234,0.00029969054170841
1024,0.000897884368896484,0.000264069645689038
1025,0.00108623504638672,0.000390256767756931
1026,0.00102376937866211,0.000282757599797874
1027,0.000473976135253906,0.000298723922977643
1028,0.00144195556640625,0.000278538212890149
1029,0.0007476806640625,0.00042641081222038
1030,0.00122356414794922,0.00038659467838156
1031,0.00138092041015625,0.000374695714044454
1032,0.000678062438964844,0.00041873144924473
1033,0.000805854797363281,0.000359432752260337
1034,0.000667572021484375,0.00035349299295175
1035,0.00100803375244141,0.000567736666341294
1036,0.00130701065063477,0.000409720507266161
1037,0.00102663040161133,0.000264764449339125
1038,0.00137519836425781,0.000435026042375524
1039,0.00154876708984375,0.000558888951739873
1040,0.000122547149658203,0.00061002961250666
1041,0.00104618072509766,0.000759383497759677
1042,0.000886440277099609,0.000642184769028289
1043,0.00116920471191406,0.00076037931051119
1044,0.00196409225463867,0.000768128866043558
1045,0.000465869903564453,0.000838088207912992
1046,0.00205278396606445,0.000759153509314316
1047,0.0021357536315918,0.000612410410738337
1048,0.000529289245605469,0.000845073838044541
1049,0.00247812271118164,0.000790038447149954
1050,0.000532627105712891,0.000808571856658433
1051,0.00108766555786133,0.000674209296871895
1052,0.00173807144165039,0.000671657594310226
1053,0.00128698348999023,0.000924637292940864
1054,0.00164604187011719,0.000829764615487398
1055,0.00161838531494141,0.00123199958034878
1056,0.00197839736938477,0.00077051219165365
1057,0.00155115127563477,0.000744775069853233
1058,0.000677108764648438,0.00124546214542353
1059,0.00211572647094727,0.00101657208886419
1060,0.00232172012329102,0.00106533232959992
1061,0.000582218170166016,0.00102005889363759
1062,0.00233316421508789,0.000870185877168377
1063,0.00178146362304687,0.00104889608585667
1064,0.00143289566040039,0.00106152819445543
1065,0.00230789184570312,0.00125709179702189
1066,0.000685691833496094,0.00123579707047178
1067,0.00156402587890625,0.00135010107084812
1068,0.00286722183227539,0.00136981099324196
1069,0.0008697509765625,0.00127426877417682
1070,0.0003509521484375,0.00188848706221889
1071,0.000752449035644531,0.00179619994129598
1072,0.00268459320068359,0.00104126562405332
1073,0.000775337219238281,0.00103588523927111
1074,0.0000505447387695313,0.00120686797083927
1075,0.00234699249267578,0.0011766346989728
1076,0.000996112823486328,0.00144258112180157
1077,0.00192165374755859,0.00135395423586203
1078,0.00192785263061523,0.00170202199408276
1079,0.00239181518554687,0.00195297598270329
1080,0.000537872314453125,0.00134281678563287
1081,0.000951766967773438,0.00168393717491493
1082,0.000622272491455078,0.00203383116682645
1083,0.0018467903137207,0.00155388873154176
1084,0.00241374969482422,0.00257032478758591
1085,0.00183296203613281,0.00210117459173784
1086,0.00169801712036133,0.00248268516518887
1087,0.0036015510559082,0.00234866421811367
1088,0.00208854675292969,0.00175727995116921
1089,0.00161552429199219,0.00240852143163314
1090,0.00112771987915039,0.00187810218998709
1091,-0.00259494781494141,0.00200070598182175
1092,0.00295400619506836,0.00224428726195293
1093,-0.000746726989746094,0.00217800172952272
1094,0.000763893127441406,0.00273311279319883
1095,0.00293684005737305,0.00290622855763062
1096,-0.00163364410400391,0.00274446193673782
1097,0.00261497497558594,0.00231998835974375
1098,0.00282526016235352,0.00382676314438897
1099,-0.000690460205078125,0.00404573778795253
1100,0.00214099884033203,0.00289860770144798
