Wavelength (nm),Absorbance (AU),Std.Dev.
190,0.92478084564209,0.774777878955478
191,1.21044445037842,0.8654085074493
192,1.57502508163452,1.49478259288767
193,1.17629194259644,0.758677824254555
194,1.18632411956787,0.675623175153641
195,1.31531810760498,0.343178013109291
196,0.712751388549805,0.723426532044288
197,1.70040130615234,1.56105401842393
198,1.71337556838989,0.937906812776794
199,1.53713750839233,0.599160688190937
200,1.84026432037354,0.785068791770823
201,2.43412065505981,1.13850938216655
202,3.02480697631836,1.57932349292743
203,2.84218406677246,0.803169077097874
204,3.41588830947876,0.650821577381956
205,3.51552438735962,0.64476794896134
206,3.98792505264282,1.16198955527255
207,3.81619644165039,0.62720558098626
208,3.99999952316284,0.478320272624029
209,3.38714647293091,0.45971932514324
210,3.99999952316284,0.373154230298738
211,3.6798586845398,0.268900700389422
212,3.73020696640015,0.518605260304622
213,3.99999952316284,0.690511868562011
214,3.99999952316284,0.901269314330142
215,3.92387104034424,0.414384824426334
216,3.33525371551514,0.176441900876083
217,3.55758953094482,0.30069245848515
218,3.61030626296997,0.146174803092332
219,3.30226850509644,0.0960165070011361
220,3.27236890792847,0.0693307794076094
221,3.24926471710205,0.0438040263515738
222,3.15087795257568,0.0300813549338721
223,3.03441190719605,0.0251381869654256
224,3.04109621047974,0.0337338387683904
225,2.96285009384155,0.0414169297750445
226,2.87722253799439,0.0275067511854601
227,2.700599193573,0.0181372002942952
228,2.59890651702881,0.0163915477452944
229,2.4978723526001,0.0151792359807689
230,2.39381408691406,0.00810251756738573
231,2.28697919845581,0.00849551494863031
232,2.21619367599487,0.00527318671301276
233,2.12792682647705,0.00361520612840628
234,2.04343700408936,0.0030839367911767
235,1.97562456130981,0.00238261972491807
236,1.9269552230835,0.00254666400983297
237,1.88057518005371,0.00184416843369907
238,1.84251356124878,0.00177717407171181
239,1.81605863571167,0.00294474862972117
240,1.7937593460083,0.0017706442421111
241,1.78360366821289,0.00184823558789667
242,1.77956628799438,0.00214390058919975
243,1.78455114364624,0.00161815123475262
244,1.79907369613647,0.00148092817107975
245,1.82415676116943,0.00205575023117143
246,1.85840845108032,0.00257688376862604
247,1.89885807037354,0.00257783230651745
248,1.95685386657715,0.00343380393382023
249,2.0188775062561,0.00523053839981166
250,2.08329200744629,0.0061979991576104
251,2.1727409362793,0.00976600646227627
252,2.24070739746094,0.0128223228017516
253,2.35676670074463,0.0116390058172195
254,2.42235231399536,0.0154820098302396
255,2.51031875610352,0.0179264732255544
256,2.5945987701416,0.0200358998440863
257,2.72070360183716,0.0227332811649578
258,2.92062282562256,0.0454862224134227
259,2.92000341415405,0.050088708387078
260,2.85494089126587,0.0515339165270049
261,3.00969648361206,0.0511810993296243
262,2.91575717926025,0.0545346986396083
263,3.07234287261963,0.0672942976146945
264,3.07958841323853,0.0888081448780442
265,3.02090740203857,0.0625800573691193
266,3.00659704208374,0.0359691314809606
267,2.94686603546143,0.0289777541503082
268,2.99845695495605,0.0347821142975252
269,2.82628154754639,0.0338344027220247
270,2.7292046546936,0.0293187377734495
271,2.66282892227173,0.0245740606848333
272,2.59612941741943,0.0416908988424952
273,2.50742340087891,0.0287987643784794
274,2.36090564727783,0.0157423381940193
275,2.1854510307312,0.00741909878657267
276,1.961998462677,0.00519668747339351
277,1.71684789657593,0.00358805485050007
278,1.49420261383057,0.00257525689084348
279,1.30152368545532,0.00160630918349245
280,1.14310836791992,0.000277812383439707
281,1.01138401031494,0.000377626128969356
282,0.905565738677979,0.000437860118226967
283,0.81959342956543,0.00037825180835695
284,0.751437664031982,0.000270319149005845
285,0.695729732513428,0.000208547444575045
286,0.649598121643066,0.000207541969432609
287,0.612461090087891,0.000231623128094285
288,0.582955837249756,0.00025720226792965
289,0.558468818664551,0.000189874616466443
290,0.538611888885498,0.000194451363408714
291,0.522490501403809,0.000205715309283228
292,0.509854316711426,0.000200139865233
293,0.499661445617676,0.000146856555397236
294,0.491570472717285,0.0001363820961342
295,0.485576152801514,0.000172493823566241
296,0.480946063995361,0.000227894241809751
297,0.477746963500977,0.000168706037821063
298,0.475945949554443,0.000223400116976441
299,0.47456169128418,0.000312997014835881
300,0.475131988525391,0.000322014456101795
301,0.476480484008789,0.000210397067766383
302,0.477715015411377,0.000272990834760572
303,0.480180263519287,0.000336683503679896
304,0.482906818389893,0.000240473474895104
305,0.48742151260376,0.000299739094246875
306,0.490926742553711,0.000242094315446792
307,0.495545864105225,0.000222902883691205
308,0.500718593597412,0.000269422699745031
309,0.505435943603516,0.000209916693716575
310,0.510350227355957,0.000233383415648536
311,0.516074657440186,0.000306282421173117
312,0.522183418273926,0.000272069760884768
313,0.526634216308594,0.000209317934642995
314,0.532472610473633,0.000247500075058191
315,0.538800239562988,0.000223566971689991
316,0.543571949005127,0.000237432347405936
317,0.548495769500732,0.000224788137233931
318,0.554256916046143,0.000280354297500888
319,0.559334278106689,0.000285733302904566
320,0.56394100189209,0.000312124069041638
321,0.568253517150879,0.000421838944823832
322,0.572245597839356,0.000557285362093609
323,0.574990272521973,0.000390182184523043
324,0.57863187789917,0.00034360873709112
325,0.581762790679932,0.000269894886306498
326,0.583358764648438,0.000277353676514219
327,0.58546781539917,0.00026732156236956
328,0.586055278778076,0.000212290559051155
329,0.586380958557129,0.000261167503059172
330,0.587147235870361,0.000402942916751868
331,0.586531162261963,0.000394217171976747
332,0.58488655090332,0.000220634980041004
333,0.583905220031738,0.000268414851108586
334,0.581588268280029,0.000523948356981049
335,0.579475402832031,0.000407396452042894
336,0.576313495635986,0.000251741118650763
337,0.572336196899414,0.000187100109757424
338,0.568289279937744,0.000238952039910323
339,0.564339160919189,0.000189154755604365
340,0.558779716491699,0.000186691338742166
341,0.552824974060059,0.000185954264703466
342,0.547147750854492,0.000240934449249913
343,0.540809154510498,0.000313078365588349
344,0.534226417541504,0.000319934636631191
345,0.525996685028076,0.000250966784828548
346,0.518072128295898,0.000248006668643203
347,0.510691165924072,0.000267253508713415
348,0.501474380493164,0.000232790318334844
349,0.493242740631104,0.000210617412823045
350,0.484380722045898,0.000219962040236301
351,0.474856853485107,0.000284725692091936
352,0.464638233184814,0.000277458590670514
353,0.454586029052734,0.000264681993887316
354,0.44514274597168,0.000165535995691924
355,0.434958934783936,0.000188601001551792
356,0.4240403175354,0.000354181853326983
357,0.413672924041748,0.000255249999914212
358,0.403005599975586,0.00036277750939846
359,0.391842842102051,0.000259027494948302
360,0.381155967712402,0.000310024837849104
361,0.370060443878174,0.000451779994015974
362,0.358615398406982,0.000368607151975191
363,0.348466873168945,0.000363758938270305
364,0.338790893554687,0.000296499170105704
365,0.328353881835937,0.000296499170105704
366,0.319241523742676,0.000379768392350316
367,0.311749458312988,0.000240212368247935
368,0.303140163421631,0.000198336746068606
369,0.293402671813965,0.000203729478009711
370,0.284873485565186,0.000256281231039719
371,0.276258945465088,0.000255876346290996
372,0.267323970794678,0.000222371821360968
373,0.258357048034668,0.000211315808371374
374,0.24951696395874,0.000197753516243915
375,0.241000652313232,0.000214871098663364
376,0.232740879058838,0.000257732138156435
377,0.224531173706055,0.000250575091003866
378,0.216873168945312,0.000235829601647916
379,0.208643436431885,0.000157156731072346
380,0.201246738433838,0.000128332108451876
381,0.193974018096924,0.000162693037053518
382,0.187135219573975,0.000292608665669531
383,0.180149078369141,0.000290067533258062
384,0.17361307144165,0.000184564933181261
385,0.166895389556885,0.000145615794051106
386,0.160392284393311,0.000165980432616028
387,0.154113292694092,0.000201060240983649
388,0.148162841796875,0.000203939188759973
389,0.142206192016602,0.000190037405838954
390,0.136613368988037,0.000190610845301166
391,0.131784439086914,0.000152295547816124
392,0.126373767852783,0.000193254988120885
393,0.121071338653564,0.000232172203298926
394,0.11598014831543,0.000159095058220991
395,0.111402988433838,0.000177987413746463
396,0.10709285736084,0.000207401690964786
397,0.102705001831055,0.00018873597825968
398,0.0982017517089844,0.000184051730940609
399,0.0936188697814941,0.000183070696072125
400,0.0901150703430176,0.000222101719117075
401,0.0863842964172363,0.000239389350554097
402,0.0828642845153809,0.000188176158741821
403,0.0795016288757324,0.000178950575437535
404,0.0756735801696777,0.000216717111459972
405,0.0724844932556152,0.000182712650145733
406,0.0691962242126465,0.000203943648347968
407,0.066096305847168,0.000207199874282031
408,0.0635480880737305,0.000214955736906164
409,0.0604000091552734,0.000232007617180404
410,0.0578937530517578,0.000178635190000193
411,0.0552406311035156,0.00016554423684871
412,0.0528578758239746,0.000211762947102688
413,0.0502490997314453,0.000227378837663015
414,0.0477752685546875,0.000170040424793821
415,0.0456070899963379,0.00018737698222365
416,0.0436410903930664,0.000180378112478274
417,0.0416512489318848,0.000258676137668007
418,0.0397815704345703,0.000193588839247657
419,0.0377540588378906,0.000169984254198223
420,0.0358724594116211,0.00016544256722457
421,0.0343313217163086,0.000148056209941127
422,0.032707691192627,0.000149011421203491
423,0.0310077667236328,0.000137940344554418
424,0.0291242599487305,0.000185179880752868
425,0.0280308723449707,0.000149754199795254
426,0.0267047882080078,0.000108984155076798
427,0.0253415107727051,0.000112205771494352
428,0.0238065719604492,0.0001164420328491
429,0.0229263305664062,0.000183750051179906
430,0.0216503143310547,0.000117435611763782
431,0.0204753875732422,0.000135351216388373
432,0.0195045471191406,0.000128971890738738
433,0.0185198783874512,0.000107917003554594
434,0.0176043510437012,0.0000953555099665187
435,0.0162982940673828,0.000122260154685155
436,0.0157294273376465,0.000132834885136009
437,0.0147185325622559,0.00015398222908901
438,0.0138821601867676,0.000115968522259777
439,0.0130810737609863,0.000123275086582504
440,0.0120835304260254,0.000181333591614732
441,0.0119147300720215,0.000201516595927386
442,0.0111584663391113,0.000202664206835014
443,0.0105085372924805,0.000136488754029095
444,0.00979280471801758,0.000133915706806777
445,0.00928401947021484,0.000113617397653766
446,0.00862598419189453,0.000122794595405064
447,0.00821685791015625,0.000118532165056529
448,0.00771760940551758,0.000131105073772172
449,0.00723838806152344,0.00013625866886915
450,0.00714826583862305,0.000107524400249141
451,0.0063929557800293,0.000104641585719996
452,0.0059361457824707,0.000158659996078631
453,0.00540924072265625,0.000126813584906148
454,0.00507783889770508,0.000113761394413386
455,0.00506925582885742,0.00010044640100132
456,0.00449514389038086,0.000104554634368639
457,0.00411415100097656,0.000120525720809781
458,0.0041203498840332,0.0000892513828771196
459,0.00360488891601562,0.000108314481513415
460,0.00321435928344727,0.000117578800020664
461,0.00328731536865234,0.000112733421021559
462,0.00298213958740234,0.0000929869137554056
463,0.0027313232421875,0.000124127957135914
464,0.00251150131225586,0.000117596202916835
465,0.00238752365112305,0.0000938364159333391
466,0.00222873687744141,0.000117454971728925
467,0.00184106826782227,0.0000928008907882239
468,0.00177574157714844,0.000143622212196477
469,0.00161266326904297,0.000102669584559149
470,0.00142240524291992,0.000107043304322532
471,0.00132036209106445,0.000107005063188479
472,0.00119161605834961,0.00012416092459003
473,0.00113534927368164,0.000142547994117808
474,0.000941753387451172,0.000142650041911902
475,0.000913143157958984,0.000116590341849993
476,0.000608921051025391,0.000119846548042691
477,0.000688552856445313,0.000101078230754036
478,0.000585556030273438,0.00014371400482403
479,0.000577926635742188,0.00012560654677068
480,0.000477790832519531,0.0000983094372295459
481,0.000321388244628906,0.000115538342056965
482,0.000197887420654297,0.000114136529476082
483,0.000148296356201172,0.000136924518558026
484,0.000152111053466797,0.000112189559130231
485,0.000559329986572266,0.000124310999021904
486,0.000288486480712891,0.0000802390989097619
487,-0.000311374664306641,0.0000954413127822892
488,-0.00020599365234375,0.000120791426654346
489,-0.000215053558349609,0.0000864904267655232
490,-0.0000672340393066406,0.0000992600428385266
491,0.0000295639038085937,0.000101665886797384
492,-0.000230312347412109,0.000130130249566771
493,-0.000116825103759766,0.000115207252073484
494,-0.000152587890625,0.000089961873055903
495,-0.000260829925537109,0.000110030626294002
496,-0.000330924987792969,0.0000875746200260111
497,-0.000314712524414062,0.0000852978911844131
498,-0.000317573547363281,0.000114841554632499
499,-0.000232696533203125,0.0000939115015484903
500,-0.000238418579101562,0.0000879321852743496
501,-0.000161170959472656,0.0000988629597604825
502,-0.000356197357177734,0.0000973822430188704
503,-0.000369071960449219,0.0000859088012441791
504,-0.000491142272949219,0.0000644012671751108
505,-0.000250339508056641,0.00011404884250796
506,-0.000437736511230469,0.000122115007801125
507,-0.000430583953857422,0.000107143091824802
508,-0.000202178955078125,0.0000951263240921763
509,-0.000516414642333984,0.0000960492556318564
510,-0.000289440155029297,0.000100199361339638
511,-0.000337600708007812,0.000100176666641302
512,-0.0003509521484375,0.000107699771026038
513,-0.000454902648925781,0.000115217119678795
514,-0.000209331512451172,0.000121242352820312
515,-0.000255584716796875,0.000112908756235959
516,-0.000355243682861328,0.000105334612612753
517,-0.000356197357177734,0.0000821392663190208
518,-0.000380516052246094,0.0001064575665643
519,-0.000322341918945312,0.000118222924297682
520,-0.000224113464355469,0.0000905865108432058
521,-0.000235080718994141,0.0000895159375193624
522,-0.000329494476318359,0.000111919684507095
523,-0.000259876251220703,0.000104676346036769
524,-0.000273227691650391,0.000123885927741686
525,-0.000224113464355469,0.000128894296682538
526,-0.000149726867675781,0.000108402612026912
527,-0.000177383422851562,0.000112932919040295
528,-0.000110149383544922,0.000100753784612979
529,-0.000113964080810547,0.000109462952401748
530,-0.000184535980224609,0.00010566651175427
531,-0.000174045562744141,0.000110197882275805
532,-0.0000481605529785156,0.000109052981253989
533,-0.0000901222229003906,0.000105233110230512
534,-0.000254154205322266,0.0000974475971033209
535,-0.0001068115234375,0.0000955889037564597
536,-0.000206470489501953,0.000106510948557247
537,-0.000101566314697266,0.0000887455315494965
538,-0.0000982284545898438,0.0000907795764077168
539,0.0000214576721191406,0.0000958928891121505
540,-0.0000543594360351563,0.0000851057485205562
541,-0.000230789184570312,0.0000695218111019613
542,-0.0000758171081542969,0.0000755120985853616
543,-0.000134468078613281,0.000105492071602057
544,-0.000125885009765625,0.0000877432199688833
545,-0.0000104904174804687,0.000077605888405071
546,-0.0000748634338378906,0.0000783262185402135
547,-0.000191211700439453,0.000106875366476874
548,-0.000091552734375,0.000117659991513839
549,-0.000174522399902344,0.0000992462977657142
550,0.0000119209289550781,0.000109121764020575
551,-0.000011444091796875,0.000104454550833455
552,-0.0000324249267578125,0.0000928302876183118
553,0.0000119209289550781,0.0000868262724237071
554,0.00000095367431640625,0.0000661275322851552
555,-0.0000300407409667969,0.0000963942561601215
556,-0.0000152587890625,0.000123510949445129
557,-0.0000352859497070312,0.000100471297866494
558,0.000105857849121094,0.0000924031182387491
559,0.0000262260437011719,0.000108704231347196
560,0.0000929832458496094,0.00011126972353356
561,0.0000896453857421875,0.0000809851447375383
562,-0.0000696182250976563,0.0000557032751455071
563,-0.0000286102294921875,0.0000657897050133025
564,0.000125885009765625,0.0000781882089041703
565,-0.0000710487365722656,0.0000856171707230177
566,-0.00002288818359375,0.0000998060154558231
567,0.0000958442687988281,0.0000812933938076
568,0.000123023986816406,0.0000663232321673542
569,0.000121116638183594,0.0000838067588828099
570,0.000113964080810547,0.000100355814879271
571,0.000135898590087891,0.0000903628432073568
572,0.000141143798828125,0.0000694989135702176
573,0.000162124633789062,0.000075542203477753
574,0.00019073486328125,0.000093766120118297
575,0.0001373291015625,0.0000738805282377585
576,0.000185012817382812,0.0000954770411977144
577,0.000149726867675781,0.0000863773105971367
578,0.000302791595458984,0.0000782303639786371
579,0.0000405311584472656,0.0000938146056275707
580,0.000221729278564453,0.0000841289948186529
581,0.000160694122314453,0.000081109986593973
582,0.000378131866455078,0.0000766581544379353
583,-0.000187397003173828,0.0000838081154072616
584,0.000201702117919922,0.0000829381444402038
585,0.000294685363769531,0.000071985040552543
586,0.0000815391540527344,0.0000813325417017688
587,0.000173568725585937,0.0000771887283955012
588,0.000112533569335937,0.0000617131190564384
589,0.0000920295715332031,0.000073471616483495
590,0.000171184539794922,0.0000774563218868875
591,0.000135421752929687,0.0000749999823785987
592,0.000153064727783203,0.0000914558255380964
593,0.000283718109130859,0.0000757781114393782
594,0.0000677108764648438,0.0000970384119552974
595,0.000248432159423828,0.0000971601783502486
596,0.000080108642578125,0.0000927959904111492
597,0.0000867843627929688,0.0000963399887460692
598,0.0000886917114257813,0.0000893735823290123
599,0.000325202941894531,0.000100713155354812
600,0.0000901222229003906,0.0000940880793709107
601,0.000178337097167969,0.0000741033173051618
602,0.000195503234863281,0.0000655820131185692
603,0.000120639801025391,0.0000950737245171885
604,0.000160694122314453,0.0000719091936189663
605,0.000117301940917969,0.0000714428741467592
606,0.000173568725585937,0.0000864509844467895
607,0.0000777244567871094,0.000096349428752828
608,0.000267982482910156,0.0000765215934471412
609,0.000113487243652344,0.0000795160811831506
610,0.000214576721191406,0.0000800262890713675
611,0.000030517578125,0.0000796831844666882
612,0.000162124633789062,0.0000724431625683559
613,0.000123023986816406,0.0000898303497793497
614,0.000174999237060547,0.0000772888167928879
615,0.0000886917114257813,0.0000778282385372283
616,0.000118255615234375,0.0000836900155236772
617,0.0000805854797363281,0.0000820146050446939
618,0.0000524520874023438,0.0000766255206897192
619,0.0000262260437011719,0.0000970899471445191
620,0.0000967979431152344,0.0000814233481783558
621,0.0000448226928710938,0.0000796817577182934
622,0.000136375427246094,0.000070429994345233
623,0.0000348091125488281,0.0000907895945699068
624,0.000209808349609375,0.000101172664890787
625,0.000115871429443359,0.000100040390334651
626,0.0000925064086914063,0.0000806602154047002
627,0.000219821929931641,0.000108461325918882
628,0.000153064727783203,0.000101316395275198
629,0.000151634216308594,0.0000638748247132887
630,0.000193595886230469,0.0000610742592721862
631,0.000117301940917969,0.0000832896802597597
632,0.000124454498291016,0.0000872051601046311
633,0.0000567436218261719,0.0000885274863823509
634,0.000107288360595703,0.0000966133744586927
635,0.0000786781311035156,0.000106177406145688
636,0.0000901222229003906,0.00010610242890031
637,0.0000586509704589844,0.0000904106389325072
638,0.000030517578125,0.0000856609785952973
639,0.000105857849121094,0.0000859193873384547
640,0.000165939331054687,0.0000996030532008889
641,0.000120639801025391,0.000129752288706283
642,0.0000905990600585938,0.0000892157098417413
643,0.0000982284545898438,0.0000921665910976377
644,0.000134944915771484,0.0000830942621495891
645,0.000145912170410156,0.0000909697328314856
646,0.000124454498291016,0.0000919541855620663
647,0.000169277191162109,0.000102532186447931
648,0.0000324249267578125,0.0000993722231033379
649,-0.0000667572021484375,0.0000955532171677041
650,0.0000700950622558594,0.000069376119535344
651,0.000131130218505859,0.0000970829212296007
652,0.0000786781311035156,0.0000955746307199584
653,0.0001373291015625,0.0000993058460077948
654,0.000204563140869141,0.0000946182387116872
655,0.0000367164611816406,0.0000865456158129974
656,0.00152111053466797,0.0000689981885010787
657,-0.00101089477539062,0.0000766685349902973
658,-0.000153541564941406,0.0000930797858242536
659,-0.00000905990600585938,0.0000921937239481024
660,0.0000567436218261719,0.0000715573558132327
661,0.0000357627868652344,0.0000847268651673938
662,0.00012969970703125,0.0000848676376306968
663,0.000102996826171875,0.0000728500443275121
664,0.0000462532043457031,0.0000801285083298447
665,0.0000176429748535156,0.000112485066969198
666,0.0000476837158203125,0.000103091708384174
667,-0.00003814697265625,0.000104319503708865
668,0.000143527984619141,0.0000959450396007771
669,0.0000457763671875,0.0000903905174970091
670,0.0000939369201660156,0.0000868000812758084
671,0.0000181198120117187,0.000073463879289897
672,0.0000596046447753906,0.0000773667370776556
673,0.0000863075256347656,0.0000933164348982798
674,0.0000629425048828125,0.0000856357586179428
675,0.0000185966491699219,0.0000868288911039793
676,0.0000844001770019531,0.0000711798258631021
677,0.000136852264404297,0.0000775150098191495
678,0.0000395774841308594,0.0000741401281617461
679,0.00006103515625,0.000072881248836922
680,0.0000138282775878906,0.0000767189348369977
681,0.0000634193420410156,0.0000915353480360626
682,0.000150203704833984,0.000105341088167588
683,0.0000395774841308594,0.0000845024868113046
684,0.000145435333251953,0.0000753312165819203
685,0.000102519989013672,0.0000716462706413
686,0.000101566314697266,0.0000886045047709422
687,0.000128269195556641,0.000077393182724327
688,0.000189304351806641,0.0000668542020982048
689,0.000152587890625,0.0000707954654465607
690,0.000152587890625,0.0000854922616212877
691,0.0000972747802734375,0.0000727375972512742
692,0.000121116638183594,0.0000871816908686472
693,0.000179290771484375,0.0000797815684877017
694,0.000130176544189453,0.000071830101233103
695,0.000188827514648437,0.0000823562792898733
696,0.000154018402099609,0.0000903099869236439
697,0.0000972747802734375,0.0000926144941810972
698,0.000080108642578125,0.0000909372342655655
699,0.0000867843627929688,0.0000942763860840876
700,0.000117778778076172,0.0000952003923477589
701,0.000134468078613281,0.0000744461774635124
702,0.000120639801025391,0.000088568571190866
703,0.000003814697265625,0.0000815070797483283
704,0.00012969970703125,0.0000854816226315291
705,0.0000739097595214844,0.0000763341678449677
706,-0.0000257492065429687,0.0000787200238219593
707,0.00000286102294921875,0.0000754277409640548
708,0.000034332275390625,0.0000688183571861976
709,0,0.0000725497981584744
710,-0.0000653266906738281,0.0000700739744475225
711,-0.00000333786010742187,0.0000730448538088131
712,0.0000057220458984375,0.0000836315827322983
713,0.0000424385070800781,0.0000837280428605956
714,-0.0000281333923339844,0.0000774254929145486
715,-0.00000667572021484375,0.0000907344809895805
716,0.0000596046447753906,0.0000847013670566202
717,0.0000181198120117187,0.0000716446838441692
718,0.0000133514404296875,0.0000762328260702276
719,0.0000867843627929688,0.0000855746689447302
720,0.000106334686279297,0.0000892029660146531
721,0.000041961669921875,0.0000964154829206445
722,0.000103473663330078,0.000086464133885522
723,0.0000863075256347656,0.000107444014489425
724,0.00000715255737304688,0.0000857326159193683
725,0.000119209289550781,0.0000750242316561603
726,0.0000791549682617188,0.0000687572066027677
727,0.000110149383544922,0.0000782056551391745
728,0.000113964080810547,0.0000705058200875317
729,0.000159740447998047,0.0000765824822291804
730,0.000145912170410156,0.00008082495325801
731,0.000146389007568359,0.0000735674900793499
732,0.000153064727783203,0.0000630417676867666
733,0.000119686126708984,0.0000791879952710567
734,0.000117778778076172,0.0000905965503545792
735,0.0000796318054199219,0.0000838121848488823
736,0.000105857849121094,0.0000914334473740149
737,0.000142097473144531,0.0000868943324625884
738,0.000147819519042969,0.0000819300045553221
739,0.0000925064086914063,0.0000766937390537257
740,0.0000548362731933594,0.0000787070250196948
741,-0.000000476837158203125,0.0000783262185402135
742,0.0000729560852050781,0.0000858849777612703
743,0.000087738037109375,0.0000727438488711612
744,0.0000596046447753906,0.0000686281160540715
745,0.0000219345092773437,0.0000798698681496052
746,0.0000176429748535156,0.0000733384230305619
747,0.0000171661376953125,0.0000928449825429668
748,0.00000667572021484375,0.000072599925416281
749,-0.000000476837158203125,0.0000929502281841843
750,0.0000157356262207031,0.000076927593558885
751,0.000064849853515625,0.0000639601998791016
752,0.0000424385070800781,0.0000590200364943153
753,0.0000586509704589844,0.0000704332226354896
754,0.000104427337646484,0.0000739850921647082
755,0.0000705718994140625,0.0000790831228312435
756,0.0000934600830078125,0.0000570971431728862
757,0.0000667572021484375,0.0000942040049708575
758,0.000128269195556641,0.0000851791875013699
759,0.0000772476196289063,0.0000696443482599631
760,0.0000820159912109375,0.0000702117415913087
761,0.000132083892822266,0.0000772461478952623
762,0.000095367431640625,0.0000844607701442271
763,0.000144481658935547,0.0000715668876858163
764,0.000111579895019531,0.000093880021343897
765,0.000138282775878906,0.0000746581427562686
766,0.000117778778076172,0.0000623691337079714
767,0.000120639801025391,0.0000593379730954485
768,0.000145912170410156,0.0000490447358287712
769,0.000205039978027344,0.0000568287075267241
770,0.000118732452392578,0.0000750302927509881
771,0.000104427337646484,0.000068267695329196
772,0.000106334686279297,0.0000756234268249474
773,0.000140666961669922,0.00006982530861034
774,0.0000863075256347656,0.0000756910463670778
775,0.000127315521240234,0.00008017389727823
776,0.000138282775878906,0.0000847429652844355
777,0.000107288360595703,0.000102327965393199
778,0.0000753402709960938,0.0000977248643691391
779,0.0000433921813964844,0.0000690574794554967
780,0.0000977516174316406,0.000071104718881068
781,0.0000538825988769531,0.0000723693667248747
782,0.0000319480895996094,0.0000763431033076097
783,0.0000224113464355469,0.0000743560239125092
784,0.0000152587890625,0.0000708660875843634
785,-0.00000095367431640625,0.000087090361495606
786,0.0000805854797363281,0.0000788902544312804
787,0.00000286102294921875,0.0000863127943928216
788,0.00000667572021484375,0.0000903678755267552
789,-0.0000433921813964844,0.0000785074405406245
790,-0.0000357627868652344,0.0000711846172352417
791,-0.00000715255737304688,0.000104645931391034
792,0.0000219345092773437,0.0000870276802460807
793,0.0000920295715332031,0.0000797487873000126
794,0.0000219345092773437,0.0000875200798578909
795,0.0000467300415039063,0.0000867319472764442
796,0.0000133514404296875,0.0000733446234383368
797,0.00000476837158203125,0.0000806108694314366
798,-0.0000214576721191406,0.0000854616709559759
799,0.0000157356262207031,0.0000685004418972752
800,0.0000753402709960938,0.0000681176525929222
801,0.00000095367431640625,0.0000728063355458031
802,0.0000658035278320313,0.0000721758843248899
803,0.00008392333984375,0.000057556240012445
804,0.0000653266906738281,0.0000740910429554474
805,0.0000452995300292969,0.0000825947479221487
806,0.0000743865966796875,0.0000738035484845957
807,0.0000371932983398437,0.0000648638766217497
808,0.0000844001770019531,0.0000743132009078146
809,0.0000982284545898438,0.0000920060972802973
810,-0.0000395774841308594,0.0000947263148638841
811,0.000011444091796875,0.0000741462615277527
812,0.000146389007568359,0.0000952003923477589
813,-0.00000286102294921875,0.0000971227280271612
814,-0.00000143051147460937,0.0000697210284440846
815,0.0000739097595214844,0.0000839450114618888
816,-0.00000619888305664063,0.0000713887495435002
817,-0.0000252723693847656,0.0000920653891165013
818,-0.0000329017639160156,0.0000840492279699568
819,-0.000041961669921875,0.0000852192184525112
820,0.00000715255737304688,0.0000903351604396516
821,-0.0000519752502441406,0.0000934308843349808
822,-0.0000681877136230469,0.0000764680901512101
823,0.00000715255737304688,0.0000680291392711355
824,-0.0000619888305664063,0.0000747692219975756
825,0.00000619888305664063,0.0000831558068782907
826,-0.00000667572021484375,0.0000787272444513782
827,-0.0000143051147460937,0.0000779566776950295
828,-0.0000109672546386719,0.0000934698138718097
829,-0.0000286102294921875,0.000101073731689616
830,-0.000102043151855469,0.0000708420197649885
831,0.0000209808349609375,0.0000808010378440584
832,0.0000195503234863281,0.0000820492521752832
833,-0.0000467300415039063,0.0000884812431697327
834,0.0000729560852050781,0.000109142598725112
835,0.0000224113464355469,0.0000864615041577614
836,0.0000562667846679688,0.0000824307886468736
837,-0.0000233650207519531,0.000104217012663827
838,0.0000729560852050781,0.0000965286134763348
839,0.0000438690185546875,0.0000660208554795131
840,0.0000562667846679688,0.0000732174101285008
841,0.000135421752929687,0.0000873224116688507
842,0.0000858306884765625,0.0000916247283472918
843,0.000157356262207031,0.0000915179583941146
844,0.000137805938720703,0.000093916343720323
845,0.0000681877136230469,0.0000839951056629376
846,0.000152587890625,0.0000837266850388231
847,0.0000939369201660156,0.0000979897459633797
848,0.000165462493896484,0.0000743499078504867
849,0.000165939331054687,0.0000804160102422457
850,0.000156879425048828,0.0000918601755008623
851,0.000143527984619141,0.0000872520796381972
852,0.000104904174804687,0.0000751408218520821
853,0.0000910758972167969,0.0000674180967701567
854,0.000240802764892578,0.0000662494834476519
855,0.000169754028320312,0.0000876239366404355
856,0.0000944137573242188,0.0000789824294350365
857,0.000146865844726562,0.0000829641844594252
858,0.000144004821777344,0.000078013531970992
859,0.000154018402099609,0.0000993012666415796
860,0.000087738037109375,0.0000771754716748493
861,0.0000824928283691406,0.0000801767332343434
862,0.0000896453857421875,0.0000807672628511473
863,0.0000705718994140625,0.000080314156900568
864,0.0000314712524414062,0.0000826869180740097
865,-0.00000858306884765625,0.0000821337298357091
866,0.000178337097167969,0.0000929869137554056
867,0.0000977516174316406,0.0000917784570608483
868,0.00000238418579101562,0.0000873536521725043
869,0.000091552734375,0.000095498471830852
870,-0.0000138282775878906,0.00011201918764373
871,-0.0000739097595214844,0.0000938897086848932
872,0.000104904174804687,0.0000853977942699121
873,0.00000858306884765625,0.0000732546661594722
874,0.0000133514404296875,0.0000920876137128701
875,-0.0000166893005371094,0.0000851231125430979
876,0.00000619888305664063,0.0000817758348686267
877,-0.0000486373901367188,0.0000670070740219084
878,0.0000452995300292969,0.0000902041814408373
879,0.000072479248046875,0.0000736045689124384
880,0.0000824928283691406,0.0000723787916603481
881,-0.00002288818359375,0.0000758485908640672
882,-0.0000319480895996094,0.0000823065689125458
883,0.0000810623168945313,0.0000829929560276162
884,0.000125408172607422,0.0000950450215706199
885,0.000147819519042969,0.000099055961910817
886,0.000101089477539062,0.0000975385530336375
887,0.0000476837158203125,0.0000823010436838676
888,0.000181198120117187,0.0000863141115320835
889,0.0000472068786621094,0.000080488078376419
890,0.000192165374755859,0.0000697014585442481
891,0.0000982284545898438,0.0000873874834483543
892,0.000132560729980469,0.000120367149169708
893,0.0000824928283691406,0.0000991293876976228
894,0.000125885009765625,0.000124628851061374
895,0.000215053558349609,0.0000883526628082993
896,0.000173091888427734,0.0000692448992182592
897,0.000187397003173828,0.0000751453606660629
898,0.000196933746337891,0.0000932871912639365
899,0.000151157379150391,0.0000897290468435102
900,0.000280857086181641,0.000095429400337906
901,0.000168323516845703,0.000106656012406357
902,0.000123977661132812,0.0000886070708976141
903,0.000199317932128906,0.0000890090351994896
904,0.000213146209716797,0.0000866585122912866
905,0.000095367431640625,0.0000994248354968212
906,0.000183582305908203,0.0000983302505567234
907,0.00026702880859375,0.0000795646772864094
908,0.000100135803222656,0.000103937375701231
909,0.000160694122314453,0.0000932384314909712
910,0.000263690948486328,0.0000843166217900334
911,0.0000948905944824219,0.000135921175234448
912,0.000107765197753906,0.000118649120272307
913,0.000160694122314453,0.000116146804364334
914,0.000241756439208984,0.000102616420017105
915,0.0000586509704589844,0.0000852005396825667
916,0.0000514984130859375,0.000116890285758632
917,0.000196933746337891,0.000106198818493123
918,0.0000472068786621094,0.000136348748431881
919,0.000151634216308594,0.000122115007801125
920,0.0000743865966796875,0.000103082885816046
921,0.000064849853515625,0.00011123497952654
922,-0.0000119209289550781,0.000113346910664757
923,-0.000151157379150391,0.00012208521275181
924,-0.0000576972961425781,0.000113899220480603
925,-0.00000286102294921875,0.000123676521193059
926,0.0001220703125,0.000118771703582331
927,-0.0000619888305664063,0.000114349487656873
928,-0.000108718872070312,0.000115603266164289
929,-0.000168323516845703,0.000117008882112166
930,0.0000205039978027344,0.0000995916385555769
931,-0.0000209808349609375,0.000133101642724028
932,-0.000180244445800781,0.000158866226663186
933,-0.0000519752502441406,0.000141433470122152
934,-0.000142097473144531,0.00011845541042499
935,-0.0000905990600585938,0.000150336101250023
936,0.0000319480895996094,0.000138295929381826
937,-0.0000834465026855469,0.0000849011204808355
938,-0.00002288818359375,0.0000832692033866145
939,-0.0000429153442382813,0.000125624647522546
940,-0.0000467300415039063,0.000127478826992088
941,-0.000153064727783203,0.000137438333303056
942,0.0000224113464355469,0.000087369268235348
943,-0.00012969970703125,0.000105838516119541
944,-0.000000476837158203125,0.00015336079351597
945,-0.000159263610839844,0.000182388810545073
946,-0.0000443458557128906,0.000103641628582772
947,-0.0000739097595214844,0.000182513432237562
948,0.0000448226928710938,0.000125639126246448
949,-0.000181674957275391,0.000135277281516052
950,0.000107765197753906,0.000108469711023334
951,0.000000476837158203125,0.0000957030114165917
952,-0.0000257492065429687,0.000111805858203039
953,0.0000219345092773437,0.000104452374039406
954,0.000087738037109375,0.0000740004567511228
955,-0.000204563140869141,0.0000981636203758
956,-0.0000162124633789062,0.000127468124828027
957,-0.0000524520874023438,0.000172470095135897
958,-0.0000276565551757812,0.000162924867242372
959,0.0000882148742675781,0.000165824192485303
960,0.00009918212890625,0.000166183051540568
961,0.000000476837158203125,0.00012457410684549
962,0.000119686126708984,0.000131264531100706
963,-0.0000591278076171875,0.000169413471435563
964,0.0000276565551757812,0.000182313996640394
965,0.000121116638183594,0.000177634481965946
966,0.000026702880859375,0.000131841809530529
967,0.0000653266906738281,0.000179933855607311
968,-0.0000700950622558594,0.000130419975128649
969,0.0000147819519042969,0.000162472072136283
970,0.000159263610839844,0.000171064292093774
971,0.0000367164611816406,0.00012958746148272
972,0.0000739097595214844,0.000166805789501861
973,0.00000333786010742187,0.000150547693333978
974,-0.0000643730163574219,0.000158771737563838
975,0.000105857849121094,0.000151258879798178
976,0.0000333786010742187,0.000149584052134636
977,0.000237941741943359,0.000149638763552929
978,-0.0000796318054199219,0.0001781202211335
979,-0.000188827514648437,0.000167529391457173
980,-0.0000867843627929688,0.000208412206857639
981,-0.000179767608642578,0.000137547478298515
982,-0.0000505447387695313,0.000146267029332672
983,-0.000348567962646484,0.000153203556644922
984,-0.0000276565551757812,0.000134403808601594
985,-0.0000486373901367188,0.000184880041870479
986,-0.0000996589660644531,0.000178089582065391
987,-0.0000920295715332031,0.000143273498662575
988,0.0000367164611816406,0.000221925566554211
989,-0.000346660614013672,0.00022251901166849
990,-0.000432014465332031,0.000207822242307682
991,-0.000144481658935547,0.000219316065982324
992,-0.0000829696655273438,0.000222298189660038
993,0.0000352859497070312,0.000169271146639509
994,-0.000177860260009766,0.000202264407830814
995,-0.000175952911376953,0.000245166649140476
996,-0.000178813934326172,0.000180453728978589
997,-0.000391483306884766,0.000311867541446039
998,-0.000158786773681641,0.00031859003235798
999,-0.0000867843627929688,0.000283791428396624
1000,-0.00000476837158203125,0.000228555764948141
1001,-0.000133991241455078,0.000230599948445917
1002,-0.000169277191162109,0.000244914259632485
1003,-0.0000882148742675781,0.000281183558222248
1004,0.000153064727783203,0.000224281815949615
1005,-0.00043487548828125,0.000279457494177268
1006,0.000148773193359375,0.000314810766434048
1007,-0.000117778778076172,0.000233457446868684
1008,0.00000095367431640625,0.000329104702252542
1009,-0.000252723693847656,0.000328080598276433
1010,-0.000520706176757813,0.000254736389198903
1011,-0.000121116638183594,0.000309449314363868
1012,-0.000349044799804687,0.00031636124124472
1013,-0.00000476837158203125,0.000270554563032103
1014,-0.000311374664306641,0.000346171954244709
1015,-0.000125408172607422,0.000262812986040346
1016,-0.000546932220458984,0.000243790196216865
1017,-0.000412940979003906,0.00024567065028133
1018,-0.000557422637939453,0.000316217465507082
1019,-0.000184059143066406,0.000385359954984277
1020,-0.0000844001770019531,0.000340337490204933
1021,-0.000258922576904297,0.000324479189865916
1022,-0.000100612640380859,0.000307023889739143
1023,-0.000533103942871094,0.000354797608057027
1024,-0.000697612762451172,0.000419460614392083
1025,-0.000601291656494141,0.000474642471348658
1026,-0.000402450561523438,0.000348831069630564
1027,-0.0008544921875,0.000321952313505676
1028,0.000205516815185547,0.000403042218252951
1029,0.0000815391540527344,0.000468183189664996
1030,-0.00125217437744141,0.000458843229789883
1031,0.000186443328857422,0.000623279976364139
1032,-0.000462055206298828,0.000521400882523562
1033,-0.0006866455078125,0.000466540750662037
1034,-0.000638961791992188,0.000466486163058453
1035,-0.000581264495849609,0.000516958337943163
1036,-0.000677108764648438,0.000407744566467895
1037,-0.000145912170410156,0.000424118172373977
1038,-0.00156068801879883,0.0004095695335288
1039,-0.0000543594360351563,0.000387224656385789
1040,-0.000685691833496094,0.000591007293716829
1041,-0.00117874145507812,0.000806499539291587
1042,-0.000479221343994141,0.000571466605809131
1043,0.000429153442382813,0.000683831701417512
1044,-0.00100898742675781,0.000478178046320958
1045,0.000189304351806641,0.000624690892105139
1046,-0.000750541687011719,0.000741446055689315
1047,-0.000757694244384766,0.000781147175221084
1048,-0.000643730163574219,0.000685616888372752
1049,-0.000300884246826172,0.000585503218564908
1050,-0.000858306884765625,0.000544553880276011
1051,-0.00132942199707031,0.000701945759751066
1052,-0.00145721435546875,0.000868428211555417
1053,-0.000116348266601562,0.00108490419454034
1054,-0.00183439254760742,0.00092342467399991
1055,-0.000105857849121094,0.000769813091444938
1056,-0.000286102294921875,0.000951872076373203
1057,-0.0000376701354980469,0.00099606705611121
1058,-0.00115060806274414,0.00115624978091264
1059,-0.00266790390014648,0.00132567179131918
1060,-0.000677108764648438,0.000822312833921344
1061,-0.00238227844238281,0.000978795122063223
1062,-0.00217628479003906,0.0011439258826496
1063,0.000262260437011719,0.00134125537023776
1064,-0.00107192993164062,0.00138980682821481
1065,-0.000699043273925781,0.00140778351985727
1066,-0.00075531005859375,0.000914954960234376
1067,-0.00144720077514648,0.00098220861937768
1068,-0.00375604629516602,0.0009074330141186
1069,-0.00147390365600586,0.00123017924551231
1070,-0.00220394134521484,0.00161079629155232
1071,-0.00250339508056641,0.00198880038575819
1072,0.000950813293457031,0.00101465210716605
1073,-0.00246477127075195,0.000900414018678758
1074,0.000354290008544922,0.000947351476377325
1075,-0.00061798095703125,0.00142312239593901
1076,-0.00361967086791992,0.00132279268773294
1077,0.000668048858642578,0.00169509969421636
1078,-0.000764846801757813,0.00167343077733945
1079,-0.00150871276855469,0.00140695633633215
1080,-0.00330734252929687,0.00150118879556364
1081,-0.000796318054199219,0.00221383943611861
1082,-0.00230979919433594,0.00258824328053009
1083,0.00127696990966797,0.00166541137336297
1084,-0.00410032272338867,0.00206704502652752
1085,-0.00250864028930664,0.00187673801098446
1086,0.0019073486328125,0.00147419172018609
1087,-0.00057220458984375,0.00170356025952229
1088,0.00130510330200195,0.00225024461741037
1089,-0.00111961364746094,0.00325602680089328
1090,-0.00145435333251953,0.0025585672508207
1091,-0.00103759765625,0.00216432893056305
1092,0,0.00232635239830309
1093,-0.00244617462158203,0.00264272359262967
1094,0.00178194046020508,0.00321189354727327
1095,0.000654697418212891,0.0020510446288509
1096,-0.00095367431640625,0.00303967946710836
1097,-0.00142335891723633,0.00302886002008178
1098,0.000745296478271484,0.0028099382177532
1099,-0.00421953201293945,0.00334254562667057
1100,-0.00159263610839844,0.00230574389670502
