Wavelength (nm),Absorbance (AU),Std.Dev.
190,0.874177932739258,0.688209860798289
191,1.38850450515747,0.508683147865029
192,1.3373236656189,0.219615857528389
193,0.855101108551025,0.092567617085621
194,0.727054119110107,0.213954124025456
195,1.17970657348633,0.441665438284455
196,1.22429656982422,0.740623351791415
197,1.7890453338623,1.42011395064357
198,2.03250980377197,1.59217906646442
199,2.11144208908081,1.44089273542481
200,1.7170467376709,0.70999250381166
201,1.79427909851074,0.687511097211574
202,2.95726442337036,1.39415370414501
203,2.73818111419678,0.764607902222195
204,3.69931125640869,0.853870867862568
205,3.42738723754883,0.490191575571958
206,3.85842037200928,0.425915618132901
207,3.6087212562561,0.436496127850988
208,3.67223453521729,0.309821282830799
209,3.82647895812988,0.227918055481896
210,3.67369985580444,0.17263072934266
211,3.39292764663696,0.152912350350285
212,3.45269823074341,0.189065122980255
213,3.609299659729,0.179166619352586
214,3.76612615585327,0.12261985676252
215,3.47932195663452,0.0846530993647348
216,3.41309976577759,0.0620107575589877
217,3.41122674942017,0.0802223952876532
218,3.43703365325928,0.135108401257405
219,3.35553455352783,0.125110577311336
220,3.21534204483032,0.0774322311911913
221,3.11614942550659,0.0434721159739037
222,3.04082489013672,0.0282175237615219
223,3.00161123275757,0.0285827056734294
224,2.94430446624756,0.0501125023689374
225,2.88063621520996,0.0552168161844812
226,2.76393508911133,0.0281440246663509
227,2.59420537948608,0.020443406467706
228,2.49851036071777,0.0130572445714786
229,2.40060234069824,0.0110076697010663
230,2.29774379730225,0.00834286065666102
231,2.20535087585449,0.00509296230357301
232,2.12161779403687,0.00440173089162666
233,2.03700113296509,0.00346055072577952
234,1.96042346954346,0.00320151067387423
235,1.89780235290527,0.00252637812579264
236,1.84939241409302,0.00141454817930015
237,1.80640649795532,0.00121043175472758
238,1.76929712295532,0.000980666596561904
239,1.74110555648804,0.00160028255303522
240,1.72142601013184,0.00148198902208719
241,1.71095371246338,0.00108149190398968
242,1.7083535194397,0.00119433535422235
243,1.71426296234131,0.00167697493403249
244,1.72780179977417,0.00203285786375057
245,1.75000667572021,0.00174621491363833
246,1.7820873260498,0.00219874861792542
247,1.82356643676758,0.00200157859834485
248,1.87597179412842,0.0021074260432332
249,1.93172025680542,0.00261918347669987
250,1.99788236618042,0.00417433172748113
251,2.08184146881104,0.00681697394950011
252,2.15946912765503,0.00917701682341972
253,2.23811769485474,0.00934695180684745
254,2.33232021331787,0.013726805283685
255,2.44162178039551,0.0157858201764975
256,2.51014518737793,0.0237557735452542
257,2.6267671585083,0.0345810350933667
258,2.73521041870117,0.0588829532766867
259,2.80052709579468,0.05437817969836
260,2.80566263198853,0.0489622182183999
261,2.87673187255859,0.0560918067021715
262,2.90903234481812,0.0519807440977715
263,2.96488475799561,0.0680184719577397
264,2.9953293800354,0.0506872627826601
265,2.89237928390503,0.0415189827855774
266,2.88290643692017,0.0407780624839367
267,2.9591178894043,0.0580469686474051
268,2.83896541595459,0.0552815461698009
269,2.64598321914673,0.0381719156734267
270,2.68535327911377,0.0298171575015079
271,2.62055397033691,0.0168005296146836
272,2.45773315429687,0.0221959949403263
273,2.40912628173828,0.0150743244500568
274,2.26805543899536,0.0133927322563525
275,2.06868505477905,0.00657056993485916
276,1.85985279083252,0.00331196577334687
277,1.6233286857605,0.00234270867420792
278,1.41620540618896,0.00121896142684585
279,1.23829984664917,0.000686687892029559
280,1.09181785583496,0.000582550611570139
281,0.970294952392578,0.000420361637900105
282,0.873224258422852,0.000496277306795413
283,0.792888641357422,0.000280166077071816
284,0.72918176651001,0.000233488610886426
285,0.677401542663574,0.000259483548152197
286,0.634160995483398,0.000195779837346746
287,0.598799228668213,0.000154671744786936
288,0.570713996887207,0.00013537809178529
289,0.547483921051025,0.000184343049874531
290,0.528538227081299,0.000168528040832869
291,0.513380527496338,0.000190763471365297
292,0.500849723815918,0.000236315030580497
293,0.490933895111084,0.00017823251932104
294,0.483066558837891,0.000220086048687832
295,0.476918697357178,0.00022503076679715
296,0.472562789916992,0.000199703136361808
297,0.469306468963623,0.000249410905179507
298,0.467212677001953,0.000183621315712871
299,0.465835094451904,0.000241273947788977
300,0.465696334838867,0.000243061631768089
301,0.466827392578125,0.000198520085677053
302,0.468559741973877,0.000199566462589876
303,0.470299243927002,0.000196452279638167
304,0.472588062286377,0.000233535349115536
305,0.477006912231445,0.000310060039276598
306,0.47990608215332,0.000284770408555526
307,0.483719825744629,0.000215108001820945
308,0.488883018493652,0.000249213912522294
309,0.493669509887695,0.000298474161407754
310,0.497401714324951,0.000244073560563464
311,0.502695083618164,0.000210872034559071
312,0.508269309997559,0.000271889185809409
313,0.513343334197998,0.00030939640649336
314,0.518185615539551,0.000184983319949407
315,0.523890972137451,0.000174185944470686
316,0.528419971466064,0.000229912661824099
317,0.533460140228272,0.00025850731654533
318,0.538330078125,0.000388378523221401
319,0.542780876159668,0.000309654981259008
320,0.54680347442627,0.000253999834970349
321,0.550406932830811,0.000258633942718266
322,0.554055213928223,0.000296609577545802
323,0.556943416595459,0.000232270115856015
324,0.560125350952148,0.000225111585204725
325,0.56216287612915,0.000198079785527156
326,0.563385486602783,0.000303424339285875
327,0.565215587615967,0.000432577250813735
328,0.565902233123779,0.000305622489146463
329,0.566006183624268,0.000237183231455056
330,0.565582275390625,0.000185022648815579
331,0.565335273742676,0.000254836339020545
332,0.563640117645264,0.000305961550957116
333,0.5623779296875,0.000249031372972348
334,0.559881210327148,0.000324215606737412
335,0.556862831115723,0.000333911327270799
336,0.553964614868164,0.000275801557061378
337,0.549515247344971,0.000224496635618543
338,0.545751094818115,0.000250175513184656
339,0.540913581848145,0.000370074789970588
340,0.535203456878662,0.000419096190398324
341,0.529860973358154,0.000246653440257773
342,0.523718357086182,0.000213810293694935
343,0.51710844039917,0.000271246167520617
344,0.510261058807373,0.000375015979292285
345,0.503087997436523,0.000330962088316357
346,0.495295524597168,0.000205746254885281
347,0.487351417541504,0.000192216837880617
348,0.478591442108154,0.00026748482050216
349,0.470147609710693,0.00022103446878222
350,0.462041854858398,0.000191842676696149
351,0.452453136444092,0.000246047973632812
352,0.442173957824707,0.000262522133393635
353,0.432675838470459,0.000213149943308378
354,0.423074245452881,0.00025603269346899
355,0.412752151489258,0.000258359507571366
356,0.402847766876221,0.00027000269871857
357,0.392538547515869,0.00024731627055985
358,0.381647109985352,0.00027958113786372
359,0.371566772460937,0.000193118460383519
360,0.361577033996582,0.000260686486255949
361,0.35028076171875,0.000356750684074041
362,0.339452266693115,0.000331664838639902
363,0.329506397247314,0.000282590291401651
364,0.320188999176025,0.000248211947935828
365,0.31067943572998,0.000248211947935828
366,0.301772117614746,0.000218514237163345
367,0.294093608856201,0.000230367132743476
368,0.286456108093262,0.000164289604858357
369,0.277515411376953,0.000163484925302002
370,0.26862621307373,0.000158969241626997
371,0.260251045227051,0.000123761061212959
372,0.252010822296143,0.000143400401697784
373,0.243656158447266,0.000222085338726234
374,0.235137462615967,0.000205254996469089
375,0.227169990539551,0.000219875192705866
376,0.219069004058838,0.000249257702122747
377,0.211750984191895,0.000174253809465937
378,0.204246997833252,0.000215002273737537
379,0.196304321289062,0.000231846837080396
380,0.189396858215332,0.000173474380506929
381,0.182538032531738,0.000184451559505258
382,0.175994873046875,0.000200874692131333
383,0.169377326965332,0.000184574788470718
384,0.163016796112061,0.000229469181490338
385,0.156557559967041,0.000189721275341922
386,0.150547981262207,0.000123962988351989
387,0.144690990447998,0.000162046076871944
388,0.139017105102539,0.000236772577418254
389,0.133039474487305,0.000186091161167601
390,0.128113269805908,0.000175232303304093
391,0.123223781585693,0.000158694386454255
392,0.118188858032227,0.000190501069787399
393,0.113161087036133,0.000204197683869043
394,0.10827112197876,0.00018469793521883
395,0.103977203369141,0.00020417541269816
396,0.0998163223266602,0.000154589400619142
397,0.095604419708252,0.000172680900195497
398,0.0915112495422363,0.000162175114570237
399,0.0873746871948242,0.000163768401288472
400,0.0837283134460449,0.000120725525867197
401,0.0802097320556641,0.000139109017571193
402,0.0769906044006348,0.000187148713501524
403,0.0738191604614258,0.000171759365512942
404,0.0701074600219727,0.000204780325493799
405,0.0669527053833008,0.000149224891617345
406,0.0639815330505371,0.000152244778152431
407,0.0612845420837402,0.00026065159547265
408,0.0588264465332031,0.00021675487838613
409,0.0559401512145996,0.000211767241930898
410,0.0534844398498535,0.000216023547670084
411,0.0508732795715332,0.000147202959446269
412,0.0484156608581543,0.000198547572016496
413,0.0464401245117188,0.000233702751012623
414,0.0439939498901367,0.000181889469930758
415,0.0416016578674316,0.000162913702269446
416,0.0399956703186035,0.000194039330198792
417,0.0383095741271973,0.000254522078841664
418,0.036318302154541,0.000273330446131483
419,0.0345358848571777,0.000189663740458009
420,0.0329275131225586,0.000176468406772162
421,0.0312962532043457,0.000155472314863512
422,0.0296101570129395,0.000152188015544422
423,0.0282244682312012,0.000167881896919356
424,0.0265116691589355,0.000176184716055366
425,0.0253748893737793,0.000123841871578222
426,0.0242109298706055,0.000102487825183168
427,0.0231032371520996,0.0000765809977129267
428,0.0217981338500977,0.000118253692488267
429,0.0209684371948242,0.00024107030603931
430,0.0196924209594727,0.000177926084595014
431,0.0183134078979492,0.000147607096969191
432,0.017540454864502,0.000143063862553399
433,0.0165419578552246,0.000161317611877404
434,0.0157661437988281,0.000206505175665718
435,0.0146350860595703,0.00017422249044532
436,0.0142788887023926,0.000154707021727704
437,0.0131773948669434,0.000138088616175886
438,0.0124855041503906,0.000130955840253997
439,0.0115890502929687,0.0001539349699061
440,0.0107321739196777,0.000177926084595014
441,0.0109167098999023,0.000184604351182283
442,0.00987958908081055,0.000184298641157258
443,0.00923013687133789,0.000159853567808204
444,0.00849008560180664,0.00013945184012163
445,0.00829792022705078,0.000110539863028318
446,0.00778102874755859,0.000117721814113889
447,0.00714015960693359,0.000137030754259049
448,0.00665712356567383,0.000153840407986768
449,0.00639867782592773,0.000145615794051106
450,0.00620794296264648,0.000125660841204337
451,0.00545692443847656,0.00010034221990756
452,0.00513124465942383,0.000162340469302248
453,0.00466060638427734,0.000112503257807154
454,0.00433683395385742,0.000104806594547588
455,0.00444746017456055,0.000118765960316062
456,0.00394296646118164,0.000153517869341135
457,0.0036168098449707,0.00015089767842345
458,0.00344276428222656,0.000130872473132389
459,0.00295162200927734,0.000103608715680805
460,0.00260782241821289,0.0000872364425976035
461,0.00291013717651367,0.0000940663274160782
462,0.0022730827331543,0.000116418598367358
463,0.00220489501953125,0.000113447166226348
464,0.00226306915283203,0.000129608514927631
465,0.00204610824584961,0.000116361945551991
466,0.00187492370605469,0.000110055420997155
467,0.00151968002319336,0.0000904433267175955
468,0.00140619277954102,0.000151201747074781
469,0.00114631652832031,0.000102603124577284
470,0.00106143951416016,0.0000962100947265617
471,0.000900745391845703,0.000104791407229822
472,0.000779151916503906,0.00011094024090357
473,0.000921726226806641,0.000145162263503215
474,0.000689983367919922,0.000165785795192404
475,0.000674724578857422,0.000141082569966316
476,0.000374317169189453,0.000120119435131358
477,0.000314235687255859,0.000102336853043834
478,0.000540256500244141,0.000116262247775231
479,0.000347614288330078,0.000125374626343377
480,0.000255584716796875,0.000114046848838776
481,0.000101089477539062,0.000130761234291097
482,0.000154495239257812,0.000109473337782594
483,-0.00000858306884765625,0.00013879811516355
484,-0.0000967979431152344,0.000112971166244439
485,0.000582695007324219,0.000125942794946435
486,0.000298023223876953,0.0000830244563049769
487,-0.000417232513427734,0.0000926537667341953
488,-0.000374794006347656,0.000123060945385695
489,-0.000300407409667969,0.0000964673508941787
490,-0.000318527221679687,0.000106630427243889
491,-0.000149726867675781,0.000118209460696
492,-0.000207901000976562,0.000117802907039692
493,-0.000170707702636719,0.0000966721925274674
494,-0.000343799591064453,0.000100419233744873
495,-0.000401496887207031,0.000101242309776994
496,-0.000325679779052734,0.0000725967934767003
497,-0.000495433807373047,0.0000726014913354058
498,-0.000669479370117188,0.0000953817356826484
499,-0.000273704528808594,0.0000807348818908601
500,-0.000334262847900391,0.0000830833160916263
501,-0.000405311584472656,0.0000913737454757956
502,-0.000499248504638672,0.0000835717487467491
503,-0.000490188598632813,0.0000876213417211593
504,-0.000473499298095703,0.0000639726409045518
505,-0.000380039215087891,0.0000924769089057958
506,-0.000415802001953125,0.0000955960394755681
507,-0.000487327575683594,0.000109602034748525
508,-0.000363349914550781,0.0000965026994379116
509,-0.000565052032470703,0.0000910796419342483
510,-0.000354290008544922,0.0000862969871536207
511,-0.00038909912109375,0.000102130015114475
512,-0.000390529632568359,0.0000911694690096569
513,-0.00040435791015625,0.0000971461361709605
514,-0.000329494476318359,0.000113817343953822
515,-0.000407695770263672,0.0000864877978372178
516,-0.000483989715576172,0.0000890881895372302
517,-0.000395298004150391,0.0000698057679452344
518,-0.000291824340820312,0.000105731046182481
519,-0.000325202941894531,0.0000937564200075672
520,-0.000360012054443359,0.0000933554121609405
521,-0.000234127044677734,0.0000945364992316284
522,-0.000425815582275391,0.000101945063427119
523,-0.000298023223876953,0.0000974825901967856
524,-0.000369548797607422,0.000100850777140916
525,-0.000275135040283203,0.000113861285020073
526,-0.000196456909179687,0.000109626926387761
527,-0.000302314758300781,0.0000867371902534643
528,-0.000205039978027344,0.0000854164299044536
529,-0.000131607055664062,0.0000825906184944571
530,-0.000162124633789062,0.0000919071925515956
531,-0.000208377838134766,0.0000944546890156415
532,-0.0000314712524414062,0.0000795946777044469
533,-0.000158786773681641,0.0000881026817541955
534,-0.000265121459960937,0.0000950808988999521
535,-0.000119686126708984,0.0000848395018245095
536,-0.000212669372558594,0.0000746946801855797
537,-0.000103473663330078,0.0000786694608592771
538,-0.000049591064453125,0.0000914458803634761
539,-0.0000691413879394531,0.0000870825288067743
540,-0.0000762939453125,0.000076508221130873
541,-0.0000519752502441406,0.0000690360747071094
542,-0.000143051147460937,0.0000582092991836789
543,-0.00012969970703125,0.0000913339225297003
544,-0.0000944137573242188,0.0000824542313615746
545,-0.0000123977661132812,0.0000709959128205671
546,-0.0000901222229003906,0.0000879890541422173
547,-0.000154495239257812,0.000109858976385759
548,-0.0000319480895996094,0.0000888530739971325
549,-0.000103473663330078,0.0000750651345488315
550,0.0000786781311035156,0.000100850777140916
551,-0.0000514984130859375,0.0000773123481731844
552,0.0000100135803222656,0.0000923021755911415
553,-0.0000252723693847656,0.0000880742885944662
554,-0.0000233650207519531,0.0000751483863897526
555,0.0000901222229003906,0.0000871086350305843
556,0,0.0000998606762323852
557,-0.0000581741333007813,0.000101569672649912
558,0.0000362396240234375,0.0000814652247209634
559,0.0000977516174316406,0.0000926316779718293
560,0.000103473663330078,0.000104539410446508
561,0.0000896453857421875,0.0000860291412003933
562,-0.0000410079956054688,0.0000682310486853322
563,0.0000963211059570313,0.0000810440828347674
564,0.0000772476196289063,0.000086915263290897
565,0.0000238418579101562,0.0000727875951759828
566,0.0000414848327636719,0.000101406123314106
567,0.0000786781311035156,0.0000740649532082713
568,0.000218391418457031,0.0000543740738016598
569,0.000153541564941406,0.0000858161172154208
570,0.00023651123046875,0.0000946614839795879
571,0.000217437744140625,0.0000817076854302224
572,0.000165939331054687,0.0000647867119761612
573,0.000166893005371094,0.0000648147824766014
574,0.000261306762695312,0.0000770767110869475
575,0.000174045562744141,0.0000515017243486373
576,0.000239849090576172,0.0000750802781134208
577,0.000195026397705078,0.000092129578878316
578,0.00038909912109375,0.0000693597305720539
579,-0.0000300407409667969,0.0000723630827525862
580,0.000363826751708984,0.0000710791324394763
581,0.000249862670898437,0.0000790802476563564
582,0.000504016876220703,0.0000735025571133864
583,-0.000205516815185547,0.0000783421828980988
584,0.00034332275390625,0.0000726703583715156
585,0.000418663024902344,0.000050720996153491
586,0.0000982284545898438,0.0000655681436009945
587,0.000224590301513672,0.0000794087787405596
588,0.000147342681884766,0.0000624074008965854
589,0.000154495239257812,0.0000632164513365805
590,0.000202655792236328,0.0000471996533037351
591,0.000117301940917969,0.0000509156258978127
592,0.000260829925537109,0.0000646004368335469
593,0.000385761260986328,0.0000545171073935165
594,0.0000357627868652344,0.0000791951732331341
595,0.000243663787841797,0.0000729030840464623
596,0.000147819519042969,0.0000780645197847877
597,0.000138282775878906,0.0000801880760558239
598,0.0000891685485839844,0.0000672661589606566
599,0.000362396240234375,0.0000780950964940425
600,0.000143527984619141,0.0000653023221864109
601,0.000183582305908203,0.0000695185404877425
602,0.000181198120117187,0.0000575522894159675
603,0.000243186950683594,0.0000814401013793517
604,0.000174045562744141,0.000062951535241804
605,0.000135421752929687,0.0000619117551085576
606,0.000216484069824219,0.0000812122417101131
607,0.000185012817382812,0.0000824818024956835
608,0.000319480895996094,0.0000582151580989125
609,0.000133037567138672,0.0000618217122904671
610,0.000339984893798828,0.0000672864371580606
611,0.000121593475341797,0.0000783523403413533
612,0.000195980072021484,0.0000692514661393436
613,0.000247955322265625,0.0000685634796359463
614,0.000219345092773437,0.0000569845342688919
615,0.000169277191162109,0.0000780018729338306
616,0.000100135803222656,0.0000749180831196059
617,0.00019073486328125,0.0000736755845165566
618,0.000154495239257812,0.0000645687518303328
619,0.0000143051147460937,0.0000778355418956207
620,0.000157356262207031,0.0000722530247683556
621,0.0000748634338378906,0.0000740542076995988
622,0.000162124633789062,0.0000705428966002288
623,0.0000925064086914063,0.0000925334418998949
624,0.00025177001953125,0.0000814861549219786
625,0.000214099884033203,0.00007831460605408
626,0.000101566314697266,0.0000734468545949429
627,0.000149250030517578,0.0000886583778335276
628,0.000291347503662109,0.0000903779393249407
629,0.0002288818359375,0.0000590700975397184
630,0.000331401824951172,0.0000639050747956365
631,0.000145435333251953,0.0000596951750846252
632,0.000226974487304687,0.000061508296885054
633,0.000156879425048828,0.0000590835682663119
634,0.000138759613037109,0.0000927028340292378
635,0.0000715255737304688,0.0000874160996859054
636,0.000163555145263672,0.0000677880666541517
637,0.0000958442687988281,0.0000603326211113913
638,0.000134468078613281,0.0000636394524410357
639,0.000179290771484375,0.0000770722860109549
640,0.000127315521240234,0.0000880665434167178
641,0.000132083892822266,0.0000951311044295793
642,0.0000805854797363281,0.0000684439904970254
643,0.000151157379150391,0.0000804018716605934
644,0.000197887420654297,0.0000922849304458843
645,0.0000710487365722656,0.0000888965660962502
646,0.000123023986816406,0.0000853871435097971
647,0.0000824928283691406,0.000083827104444643
648,0.000147342681884766,0.0000791262379176771
649,-0.0000019073486328125,0.0000920382184329589
650,0.0000295639038085937,0.0000893583165363774
651,0.0000576972961425781,0.0000886583778335276
652,0.0000867843627929688,0.0000753161234727183
653,0.000181198120117187,0.0000579636706497002
654,0.000322341918945312,0.0000650581352974074
655,0.000030517578125,0.0000803608557068594
656,0.0020751953125,0.0000612749663614277
657,-0.00135040283203125,0.0000640277078165498
658,-0.000240325927734375,0.0000666992753612982
659,0.0000891685485839844,0.0000700528802911863
660,0.0000395774841308594,0.0000535227142147078
661,0.0000691413879394531,0.0000705025951214882
662,0.000184535980224609,0.0000666685878623832
663,0.0000824928283691406,0.0000859405556150442
664,0.000049591064453125,0.0000721254623587656
665,0.0000691413879394531,0.0000948870001644119
666,0.0000472068786621094,0.0000938436849088273
667,0.0000519752502441406,0.0000905312736297615
668,0.000159263610839844,0.0000469387996762265
669,0.0000696182250976563,0.0000619924984360326
670,0.0000987052917480469,0.0000555489707324997
671,0.0000567436218261719,0.0000517626447491147
672,0.000143051147460937,0.0000665730251809205
673,0.0000753402709960938,0.0000822665025971556
674,0.000034332275390625,0.000089003926050721
675,0.0000987052917480469,0.0000703363094730868
676,0.000122547149658203,0.0000605339091207823
677,0.00012969970703125,0.0000573801752110929
678,0.0000829696655273438,0.0000606014818775835
679,0.0000987052917480469,0.0000638837232832478
680,0.0000615119934082031,0.0000588966280236988
681,0.0000996589660644531,0.0000605667664050458
682,0.000108718872070312,0.000067274608952394
683,0.0000672340393066406,0.0000666719982820013
684,0.000204086303710937,0.0000633224665220915
685,0.000164508819580078,0.0000596237152109371
686,0.000178337097167969,0.0000747205500549117
687,0.000151634216308594,0.0000720292477141312
688,0.000179290771484375,0.0000608588817358036
689,0.000217914581298828,0.000064515908911398
690,0.000164508819580078,0.0000693171011328834
691,0.000180721282958984,0.0000622176568541522
692,0.000281333923339844,0.0000653980032958744
693,0.000303745269775391,0.0000647217523147409
694,0.000253677368164062,0.0000660260212285512
695,0.000260353088378906,0.0000738097098193716
696,0.000170707702636719,0.0000736694119642237
697,0.000194549560546875,0.0000717017864174033
698,0.000153541564941406,0.0000837741957062603
699,0.000173568725585937,0.0000854896019979729
700,0.000195503234863281,0.0000754985474673943
701,0.000224590301513672,0.0000692399736187164
702,0.000205516815185547,0.0000777595534391876
703,0.0000896453857421875,0.000058162406614964
704,0.000131607055664062,0.0000697862218085962
705,0.000118732452392578,0.0000736061134584712
706,0.0000205039978027344,0.0000659122812281128
707,0.0000925064086914063,0.00006393175415838
708,0.0000576972961425781,0.0000599488808407274
709,-0.0000505447387695313,0.0000760566478156332
710,-0.0000653266906738281,0.0000659260783461096
711,-0.0000243186950683594,0.0000775589966253184
712,0.0000524520874023438,0.000080961276643081
713,0.0000429153442382813,0.0000705847857283147
714,0.0000147819519042969,0.0000698236804304512
715,0.0000486373901367188,0.0000910247039717866
716,0.000143527984619141,0.0000708002828300954
717,0.0000944137573242188,0.000057419787362586
718,0.00000667572021484375,0.0000592478564028298
719,0.0000967979431152344,0.0000703767061759779
720,0.000072479248046875,0.0000528074279100348
721,0.000201225280761719,0.0000593638323871922
722,0.000173568725585937,0.0000682093845956655
723,0.000146389007568359,0.0000866532645538372
724,0.0000948905944824219,0.0000653110262613828
725,0.000204086303710937,0.0000674383292810219
726,0.000205516815185547,0.0000566664339044469
727,0.000217914581298828,0.000070902975706594
728,0.000215053558349609,0.0000682377131753545
729,0.000247478485107422,0.0000646514522317398
730,0.000240325927734375,0.0000617186453569784
731,0.000216484069824219,0.000055415781692008
732,0.000199317932128906,0.0000596580266327416
733,0.000232219696044922,0.0000751483863897526
734,0.000196933746337891,0.0000698773903358118
735,0.000187397003173828,0.0000692695219622492
736,0.000152111053466797,0.0000758246052232227
737,0.000187397003173828,0.0000730401844666657
738,0.000200271606445312,0.0000630525869027189
739,0.000159263610839844,0.0000613935942735271
740,0.000134468078613281,0.0000593896804193552
741,0.0000653266906738281,0.0000660242993571128
742,0.000132083892822266,0.0000727078947161527
743,0.000123023986816406,0.0000652291621023082
744,0.000163078308105469,0.0000566383394882904
745,0.0000329017639160156,0.0000788340324408809
746,0.0000352859497070312,0.0000745301206967905
747,0.0000681877136230469,0.0000816213739806351
748,0.0000734329223632813,0.0000644330345391087
749,0.000120639801025391,0.0000803551966909229
750,0.0000743865966796875,0.0000592459375371417
751,0.000146865844726562,0.0000562465760746122
752,0.000064849853515625,0.0000525592662600759
753,0.000119209289550781,0.0000529063666447046
754,0.000141620635986328,0.0000640206050700843
755,0.0001678466796875,0.0000602137910168242
756,0.000143051147460937,0.0000451335879173805
757,0.000195026397705078,0.0000724698361760793
758,0.000231742858886719,0.0000645000475936632
759,0.000201702117919922,0.000055405523119623
760,0.000174045562744141,0.0000514409839992232
761,0.000195980072021484,0.0000556225997392792
762,0.000181198120117187,0.0000608392641518648
763,0.000238895416259766,0.0000594996481220782
764,0.000199317932128906,0.0000742075673065735
765,0.000227928161621094,0.0000578920372420356
766,0.000178813934326172,0.0000523023201135239
767,0.000219345092773437,0.0000579136347198405
768,0.000212192535400391,0.0000444022199869361
769,0.000226020812988281,0.0000468515257246652
770,0.000141143798828125,0.0000622249654007361
771,0.000239849090576172,0.0000548393829127381
772,0.000224113464355469,0.0000703152940156911
773,0.000175952911376953,0.0000727375972512742
774,0.000136852264404297,0.0000562809263658628
775,0.00023651123046875,0.0000648708870380492
776,0.000277519226074219,0.0000643076388072327
777,0.000147819519042969,0.0000810973708710429
778,0.000103473663330078,0.0000858783589542597
779,0.00016021728515625,0.0000629117919665331
780,0.00011444091796875,0.000048347854868589
781,0.000128269195556641,0.0000635536463987203
782,0.000141143798828125,0.000053285352322166
783,0.0000996589660644531,0.000065967452386067
784,0.0000967979431152344,0.0000636197987780924
785,0.000030517578125,0.0000590190733657569
786,0.000112533569335937,0.0000725576328253106
787,0.0000939369201660156,0.0000878390477093794
788,0.000113010406494141,0.0000778413840889709
789,0.0000481605529785156,0.0000771813638318036
790,0.0000596046447753906,0.0000654553448266589
791,0.000109195709228516,0.0000719613469733551
792,0.0000581741333007813,0.0000712755921085762
793,0.000131607055664062,0.0000595817521955773
794,0.000103950500488281,0.0000623034781305736
795,0.0001220703125,0.0000738897604187677
796,0.0000643730163574219,0.0000650756076047715
797,0.0000715255737304688,0.0000538572741384979
798,0.0000891685485839844,0.0000757691093471882
799,0.000109195709228516,0.0000652709779058031
800,0.000166416168212891,0.0000646690344170018
801,0.0000872611999511719,0.0000652413611468776
802,0.000177383422851562,0.0000497295664666234
803,0.000110149383544922,0.0000497227076890628
804,0.000149726867675781,0.0000680425071508619
805,0.000146865844726562,0.000071576418289035
806,0.000120639801025391,0.000071925001659259
807,0.000148296356201172,0.0000735010103912265
808,0.000174522399902344,0.0000766032624360016
809,0.000115394592285156,0.000077010308248869
810,0.0000462532043457031,0.0000838894667323823
811,0.000121116638183594,0.0000769039444499039
812,0.000199794769287109,0.0000645300045875355
813,0.0000872611999511719,0.0000733663207389306
814,0.0000400543212890625,0.0000567315994477412
815,0.0000715255737304688,0.0000820423239197062
816,0.0000844001770019531,0.0000695054564918637
817,0.0000615119934082031,0.0000660001884401964
818,0.0000166893005371094,0.0000527158520870827
819,0.0000095367431640625,0.0000658380721820572
820,0.00011444091796875,0.000077435770602409
821,0.0000123977661132812,0.0000734035011901903
822,0.0000019073486328125,0.0000655872134315105
823,0.0000472068786621094,0.0000569925138991455
824,0.0000157356262207031,0.000050834061626161
825,0.000112533569335937,0.0000532084891702575
826,0.0000705718994140625,0.0000591576024326925
827,0.0000519752502441406,0.0000688645972087218
828,0.0000710487365722656,0.000076751528866748
829,-0.000026702880859375,0.0000691232986464338
830,0.0000538825988769531,0.0000798428189532527
831,0.00000905990600585938,0.0000846046729006642
832,0.0000309944152832031,0.0000782303639786371
833,0.0000252723693847656,0.000079765892209189
834,0.000164031982421875,0.0000928963964735577
835,0.0000829696655273438,0.0000668048688465127
836,0.0000700950622558594,0.0000549118930368497
837,0.0001220703125,0.0000921073644077273
838,0.000174045562744141,0.0000900124077599535
839,0.000140190124511719,0.0000618750187645478
840,0.000181674957275391,0.0000672069792706071
841,0.000264644622802734,0.0000719818818592594
842,0.000174999237060547,0.0000641146526024917
843,0.000213623046875,0.0000663249462781555
844,0.0002288818359375,0.0000722907778100862
845,0.000228404998779297,0.0000795460999289702
846,0.000236988067626953,0.0000588174334008955
847,0.000246524810791016,0.0000671849849661295
848,0.000281333923339844,0.0000697650406474319
849,0.000262260437011719,0.0000517527604083449
850,0.000263690948486328,0.0000667060928883116
851,0.000292778015136719,0.0000929771323517331
852,0.000218868255615234,0.0000751090424744054
853,0.000261306762695312,0.0000554127043197057
854,0.000304222106933594,0.0000610202532693725
855,0.000264644622802734,0.0000804965527384945
856,0.000191688537597656,0.0000578340769149786
857,0.000232696533203125,0.0000655126361678909
858,0.000249385833740234,0.0000781809384905615
859,0.000317573547363281,0.0000925088665822491
860,0.00020599365234375,0.0000694972777435572
861,0.000219821929931641,0.0000759923457257848
862,0.000192165374755859,0.0000761746427448878
863,0.000202178955078125,0.0000712197441148704
864,0.000189781188964844,0.0000742458577123715
865,0.000183582305908203,0.0000724557160775379
866,0.000234127044677734,0.000075639961628613
867,0.00019073486328125,0.0000617296964738458
868,0.0000638961791992188,0.0000776220009119206
869,0.000235557556152344,0.0000787994143549254
870,0.0000982284545898438,0.0000744583932698815
871,0.0000448226928710938,0.0000748209012448247
872,0.0000939369201660156,0.0000849854387554378
873,0.000103473663330078,0.0000668678048659529
874,0.0000772476196289063,0.000084978749885351
875,0.0001220703125,0.0000758051113017902
876,0.000103473663330078,0.0000648042574638156
877,0.0000905990600585938,0.0000662872256014721
878,0.000100135803222656,0.0000571001297635848
879,0.000162124633789062,0.0000572234391390076
880,0.000118255615234375,0.0000681760417845635
881,0.000064849853515625,0.0000531475603394104
882,0.0000262260437011719,0.0000741508612193293
883,0.000195026397705078,0.0000898758988483356
884,0.000154972076416016,0.0000734251810922825
885,0.000168323516845703,0.0000891137081964965
886,0.000172138214111328,0.0000950617660093469
887,0.000180244445800781,0.0000707842236099758
888,0.000265598297119141,0.0000725779990010289
889,0.00012969970703125,0.0000695708518645566
890,0.000261783599853516,0.0000881800711771523
891,0.000206947326660156,0.000096768576766707
892,0.000287055969238281,0.0000938824432728582
893,0.000202178955078125,0.0000832391615273821
894,0.000196933746337891,0.0000783494383490806
895,0.000283718109130859,0.0000736971843784583
896,0.000357627868652344,0.0000785262636193806
897,0.000264167785644531,0.0000865088270267176
898,0.000338077545166016,0.0000846342300578681
899,0.000301837921142578,0.0000923785082512994
900,0.000346660614013672,0.0000713313963768315
901,0.000424861907958984,0.0000567696615784555
902,0.000359535217285156,0.0000714158169726227
903,0.00032806396484375,0.0000867345688045705
904,0.000463485717773438,0.0000771106282331817
905,0.000389575958251953,0.0000865640043430706
906,0.000326633453369141,0.0000781823926273711
907,0.000436782836914063,0.0000775531331593017
908,0.000265121459960937,0.0000876135565021962
909,0.000295162200927734,0.0000809697014798138
910,0.000308513641357422,0.000072169583505644
911,0.00034332275390625,0.0000946278504791553
912,0.000258922576904297,0.0000988146503218736
913,0.00026702880859375,0.000118511062488396
914,0.000296115875244141,0.0000996372892907189
915,0.000205516815185547,0.0000803764159462746
916,0.000203132629394531,0.00010272493503196
917,0.000376701354980469,0.0000957433919347406
918,0.000124931335449219,0.000116763780030141
919,0.000267982482910156,0.0000867109721981987
920,0.000200271606445312,0.0000941557199830771
921,0.000147342681884766,0.0000979735019406344
922,0.0000123977661132812,0.0000871608240203664
923,0.0000662803649902344,0.000116113519708438
924,0.0000963211059570313,0.0000994911332066615
925,0.000104904174804687,0.0000900427149688123
926,0.000178337097167969,0.0000916396165903172
927,0.0000324249267578125,0.000121435361796086
928,-0.0000681877136230469,0.0000954698965843024
929,0.0000491142272949219,0.00010097244974187
930,0.000109195709228516,0.0000767767056851607
931,-0.0000319480895996094,0.000104363086391126
932,-0.0000414848327636719,0.000105902945732934
933,0.0000424385070800781,0.000102127788774319
934,-0.0000815391540527344,0.0000811912408973418
935,0.0000500679016113281,0.0000984250111299681
936,-0.0000462532043457031,0.0001072894202286
937,-0.0000681877136230469,0.0000956340876519903
938,0.000087738037109375,0.0000755527373561166
939,0.0000324249267578125,0.000116138973538788
940,0.0000548362731933594,0.000140530309735293
941,-0.0000290870666503906,0.000111057001808723
942,-0.0000219345092773437,0.0000857140490288594
943,0.00000667572021484375,0.000106209523048028
944,0.000152111053466797,0.000114760350422186
945,0.00000238418579101562,0.000145418916619958
946,0.000134468078613281,0.0000901159153098413
947,0.0000481605529785156,0.000160049736880241
948,0.000120639801025391,0.000121891367406238
949,0.00000286102294921875,0.000139917380820477
950,0.000136375427246094,0.000105688027608733
951,0.000129222869873047,0.0000894168212546488
952,0.000258922576904297,0.000106258750111038
953,-0.000154018402099609,0.0000947935000594267
954,0.000264644622802734,0.000081168834041417
955,-0.00000667572021484375,0.0000931042104450587
956,0.0000815391540527344,0.000136054936202934
957,0.000161647796630859,0.00012936619344838
958,0.00014495849609375,0.00011271526732908
959,0.000164985656738281,0.000135142750846289
960,0.000169277191162109,0.000123739012863152
961,0.0000753402709960938,0.000104823948787811
962,0.000268936157226562,0.000131364959069912
963,0.000157833099365234,0.00016268465146286
964,0.000293254852294922,0.000167675906784208
965,0.0000743865966796875,0.000161835468692605
966,0.000148773193359375,0.000151637215254776
967,0.0000667572021484375,0.000153016442261746
968,0.000255107879638672,0.000119369399314382
969,0.000108242034912109,0.000145033766629031
970,0.000173568725585937,0.000168249881404661
971,0.0000672340393066406,0.000160029846630315
972,0.000225067138671875,0.00015584625760937
973,0.000133991241455078,0.000151379088733783
974,-0.00000715255737304688,0.000122894544295673
975,0.000256538391113281,0.000110862331981645
976,0.0000758171081542969,0.000130583751529586
977,0.000404834747314453,0.000149784562967399
978,0.00011444091796875,0.000175387940872125
979,-0.000123023986816406,0.00016413452580495
980,0.000152111053466797,0.000163984846395392
981,-0.0000376701354980469,0.000119630070967746
982,0.0000696182250976563,0.000150936850320623
983,-0.000210285186767578,0.000183819332933911
984,-0.0000500679016113281,0.00017001635395381
985,0.0000233650207519531,0.000142305337319709
986,-0.000245571136474609,0.000239757592436311
987,-0.000115394592285156,0.000209509029153793
988,0.0000319480895996094,0.000219199920380149
989,-0.000100135803222656,0.00018710983151627
990,-0.000290870666503906,0.000192406009108253
991,-0.000170230865478516,0.0001652830673637
992,0.000309944152832031,0.000225482976782085
993,-0.0000667572021484375,0.000205768356037407
994,-0.000181198120117187,0.000216612168782055
995,0.000113964080810547,0.000235482254038591
996,-0.000319957733154297,0.000192557212282165
997,-0.000432968139648438,0.000266994746624277
998,-0.000213623046875,0.000269557694592536
999,-0.000207901000976562,0.000247051351841227
1000,-0.0000681877136230469,0.000245411367200876
1001,-0.000250339508056641,0.000240824953322234
1002,0.000125885009765625,0.000306038828236837
1003,-0.000291824340820312,0.000243338369464473
1004,0.000326156616210937,0.000261237142156764
1005,-0.000226497650146484,0.000293849327013559
1006,-0.0000524520874023438,0.000293254464622179
1007,-0.000351905822753906,0.000198006306980428
1008,-0.0000262260437011719,0.000240284295487552
1009,-0.000334739685058594,0.000217559011005444
1010,-0.000664710998535156,0.000259966790762479
1011,0.000109672546386719,0.000242233276367187
1012,-0.000136852264404297,0.000243864797704647
1013,-0.000248908996582031,0.000309531597520459
1014,-0.0000405311584472656,0.000278955850778742
1015,0.0000300407409667969,0.000247742488189742
1016,-0.000437736511230469,0.000271735267949415
1017,-0.000397682189941406,0.000314052930951239
1018,-0.0000820159912109375,0.000272176711804681
1019,0.0000777244567871094,0.000365186290967183
1020,-0.000566482543945313,0.000258331343892471
1021,-0.000235080718994141,0.000244297037088745
1022,0,0.000266387714827713
1023,-0.000710487365722656,0.000302704100094827
1024,-0.000765800476074219,0.000319951692686183
1025,-0.000794410705566406,0.000411951981902277
1026,-0.000281810760498047,0.000453467875479677
1027,-0.000913619995117188,0.000459104798630203
1028,0.000603675842285156,0.000366975066565729
1029,-0.000150203704833984,0.00037764539610011
1030,-0.00128889083862305,0.000369671524342345
1031,0.000326633453369141,0.000636780274379195
1032,-0.000280857086181641,0.000464430579820567
1033,-0.00132894515991211,0.000454925640492854
1034,0.0000605583190917969,0.000523781689065588
1035,0,0.000468447309356956
1036,-0.00105667114257812,0.000485216896325496
1037,-0.000364780426025391,0.000623081492565458
1038,-0.000635623931884766,0.000469649502367426
1039,-0.00127410888671875,0.000506220532151295
1040,-0.00154542922973633,0.000490095819977505
1041,-0.0000271797180175781,0.000665651009755519
1042,-0.000988960266113281,0.000482457417846738
1043,-0.000985145568847656,0.000715415936649526
1044,-0.000968456268310547,0.000653772784755982
1045,-0.000281810760498047,0.000681049004102469
1046,-0.000589847564697266,0.000678469405661691
1047,-0.00217914581298828,0.000631410184833573
1048,-0.000550270080566406,0.000845745139587065
1049,-0.000568866729736328,0.000703312663360078
1050,-0.00223445892333984,0.000475010233124974
1051,-0.00201702117919922,0.000460426216724079
1052,-0.00172138214111328,0.000616070655839299
1053,0.000125885009765625,0.000796002194013025
1054,-0.00210428237915039,0.00073786540531056
1055,-0.00132179260253906,0.000906903660102491
1056,-0.00057220458984375,0.000862239728275879
1057,-0.000344753265380859,0.000986348236936476
1058,-0.000988006591796875,0.00101568419027244
1059,-0.00342893600463867,0.00113095320014249
1060,-0.000701427459716797,0.00097248597454748
1061,-0.00168371200561523,0.000862762752882518
1062,-0.00325584411621094,0.000873107456819163
1063,-0.000260353088378906,0.0010568295026198
1064,-0.00141811370849609,0.00147687422272496
1065,-0.00115108489990234,0.00140521766599643
1066,-0.00236606597900391,0.00143971344549135
1067,-0.000257968902587891,0.00195759024412645
1068,-0.00455999374389648,0.00123751507410347
1069,-0.000562667846679688,0.00137617021312066
1070,-0.0049443244934082,0.00133743090283979
1071,-0.000563621520996094,0.00189761922807257
1072,-0.000233173370361328,0.00168186191161785
1073,-0.00431156158447266,0.00121357745382508
1074,-0.000131130218505859,0.00128568314705477
1075,-0.000733375549316406,0.00138963929077484
1076,-0.00371408462524414,0.00156437939626097
1077,-0.000192642211914062,0.00126042123487002
1078,-0.00475740432739258,0.00175187246377226
1079,-0.000181674957275391,0.0014983944396434
1080,-0.00314426422119141,0.00187450357660432
1081,-0.00240182876586914,0.00239081415038946
1082,-0.001556396484375,0.00266666711804764
1083,-0.000109672546386719,0.00235406077865584
1084,-0.00309276580810547,0.00221447036932938
1085,-0.000437259674072266,0.00207536360114389
1086,-0.000962734222412109,0.00186628776284368
1087,0.000196456909179687,0.00229298530195719
1088,0.000638484954833984,0.00256905629670824
1089,-0.00129270553588867,0.00220070675435055
1090,-0.000993251800537109,0.00238808579947578
1091,-0.00122594833374023,0.00251811630971833
1092,0,0.00211051724554484
1093,-0.00322723388671875,0.00216561946221396
1094,0.00251197814941406,0.00303415946352099
1095,-0.000404834747314453,0.00286426614681453
1096,-0.00250005722045898,0.00297315459015552
1097,-0.00180625915527344,0.00291263065495308
1098,0.00232410430908203,0.00270002968195654
1099,-0.00439023971557617,0.00311548453256352
1100,-0.0000414848327636719,0.00219381909805005
