Wavelength (nm),Absorbance (AU),Std.Dev.
190,0.566914081573486,0.489498482784612
191,1.21213388442993,0.987223062433207
192,1.66209363937378,0.87131268268953
193,1.03074312210083,0.375315215825936
194,0.619674205780029,0.311436177532061
195,1.39118337631226,0.635219188917298
196,1.07870054244995,0.436461169006799
197,1.72684097290039,0.684887169225934
198,1.55006170272827,0.403489342984847
199,1.27642297744751,0.281798781009634
200,1.73714113235474,0.351426840145441
201,1.56879329681396,0.24467909368542
202,2.4268651008606,0.343300265105468
203,2.77631187438965,0.634918851698536
204,3.74094915390015,1.31159287849022
205,3.14413595199585,0.618286699179929
206,3.47039556503296,0.187184386060284
207,3.00976848602295,0.0970980138416445
208,3.11728286743164,0.0449921431570204
209,3.03059911727905,0.0452747582414935
210,2.99972152709961,0.030832360913863
211,3.03195142745972,0.0290008851606835
212,3.0082893371582,0.050397153919333
213,3.04198169708252,0.040778793319428
214,3.04141712188721,0.03138512959282
215,3.00692749023438,0.0296271463574336
216,2.96829462051392,0.0323999537620685
217,2.89117956161499,0.0361896789105631
218,3.02982902526855,0.0340495219573803
219,2.83758211135864,0.0296472577851696
220,2.7905478477478,0.0227286923572015
221,2.73552417755127,0.0120747841264845
222,2.65533351898193,0.0109848021401152
223,2.5682692527771,0.0189912533956
224,2.50725698471069,0.0187126264028924
225,2.41109180450439,0.0121932906063792
226,2.31482982635498,0.00901441940894419
227,2.20028162002563,0.00960426535869431
228,2.09211206436157,0.00607353476448187
229,2.00303602218628,0.00285188359582171
230,1.91317415237427,0.00306735819722002
231,1.8285231590271,0.00277844071755863
232,1.75281095504761,0.00148739933306395
233,1.67770671844482,0.00166187758123822
234,1.61264657974243,0.00143995600525139
235,1.56130981445313,0.000852872812677919
236,1.51644992828369,0.00109159013670864
237,1.47789859771729,0.000960849472991741
238,1.44721984863281,0.000700326888571956
239,1.42406940460205,0.000696472212096348
240,1.40621423721313,0.000767901496862639
241,1.39426612854004,0.00065783345541343
242,1.38988161087036,0.000658176241164365
243,1.39179420471191,0.000577180210439515
244,1.39798498153687,0.000594933806485702
245,1.40965557098389,0.000885354994164041
246,1.42921113967895,0.001215709964693
247,1.45323467254639,0.000804892083429134
248,1.48670673370361,0.00154652927128276
249,1.52002382278442,0.00163115670012252
250,1.56065082550049,0.00142406281681154
251,1.60460090637207,0.00168116958791025
252,1.65220975875854,0.00237978414488304
253,1.70370292663574,0.00280263707859347
254,1.75132703781128,0.00308114210388662
255,1.80025005340576,0.00185260803142535
256,1.84746551513672,0.00258599337722014
257,1.90951681137085,0.00536250381225059
258,1.95470809936523,0.004857282654194
259,1.97658634185791,0.00444080572841042
260,2.00299787521362,0.00405791996492985
261,2.02515888214111,0.00417020220562443
262,2.0194730758667,0.00622887617941478
263,2.03914737701416,0.00569984707627199
264,2.02909421920776,0.00750484270471045
265,2.01407670974731,0.00626911577886174
266,1.98030519485474,0.00474722483779159
267,1.93016004562378,0.00472096182288345
268,1.87304353713989,0.00343251538837926
269,1.78203582763672,0.00291885917998495
270,1.71460103988647,0.00335748841295778
271,1.65228796005249,0.00273647568255151
272,1.58557558059692,0.00240634538411919
273,1.51102733612061,0.00224449473974406
274,1.42901563644409,0.00166373288333165
275,1.32991981506348,0.00120283399505715
276,1.22979831695557,0.00103332537556989
277,1.13315153121948,0.000721129144190497
278,1.05054426193237,0.000622427215925534
279,0.981995105743408,0.000456681561980505
280,0.921790599822998,0.000405238649874515
281,0.870223522186279,0.000499492328860364
282,0.827451229095459,0.000383343861218179
283,0.78897762298584,0.000433912381918544
284,0.756311893463135,0.000335650007743209
285,0.727499961853027,0.000381812894960056
286,0.701879978179932,0.000287864345252994
287,0.678886413574219,0.000179863077206143
288,0.659303665161133,0.000246358276578464
289,0.641661167144775,0.000260113686403256
290,0.62607479095459,0.000218851113738921
291,0.612838268280029,0.000287446994534065
292,0.600914001464844,0.000254836339020545
293,0.590692520141602,0.000238040624494763
294,0.581879615783691,0.000214294672080103
295,0.573448181152344,0.0002450701779619
296,0.566356182098389,0.00017711660355131
297,0.560225009918213,0.000156117388583434
298,0.554352760314941,0.000204811412365549
299,0.548881053924561,0.000223790605807813
300,0.544190406799316,0.000196512455170858
301,0.540791034698486,0.00017373632367021
302,0.536982536315918,0.000257661551750774
303,0.533647060394287,0.000266974307356608
304,0.530339241027832,0.000289030979909156
305,0.528824806213379,0.000305336671379871
306,0.526504039764404,0.00024535947770517
307,0.523804187774658,0.000300781078152793
308,0.522819519042969,0.000329226275650183
309,0.522308826446533,0.000273177340330182
310,0.520123958587647,0.000217818044736166
311,0.519786357879639,0.000275372529957183
312,0.519018650054932,0.000216364302253528
313,0.51800012588501,0.000299781571267459
314,0.517391681671143,0.000327897584109411
315,0.517601490020752,0.000232317099225626
316,0.516464710235596,0.000336213142952434
317,0.515846252441406,0.00029840711663964
318,0.51558256149292,0.000267239895902572
319,0.514584064483643,0.000325520212451025
320,0.513311386108398,0.000218730563232629
321,0.51270055770874,0.000249505698025022
322,0.511034488677979,0.000280016708839397
323,0.509052276611328,0.000354284553434493
324,0.507692337036133,0.000255577599725273
325,0.505379676818848,0.0002341615181461
326,0.502685546875,0.000195454382026267
327,0.499891757965088,0.000256103728815214
328,0.49694299697876,0.000363608891265501
329,0.492697238922119,0.000260937562174418
330,0.488919258117676,0.000267566412213413
331,0.484838008880615,0.000350464606608186
332,0.479510307312012,0.000235165335107036
333,0.474552631378174,0.000149611410344711
334,0.469369888305664,0.000319860716549939
335,0.463532447814941,0.000288482933968424
336,0.457364559173584,0.000182398783413853
337,0.450849533081055,0.000249542147223648
338,0.444091320037842,0.000181203139386177
339,0.437056541442871,0.000246660814824329
340,0.429001808166504,0.000244349152202313
341,0.421722412109375,0.000307390994592543
342,0.414181709289551,0.000368251677542887
343,0.405402660369873,0.000238959652150968
344,0.39702844619751,0.00018014602396018
345,0.388132572174072,0.000201890848120106
346,0.379400253295898,0.000137715986784654
347,0.370658874511719,0.00011738913482053
348,0.360873222351074,0.000174311213055357
349,0.352065086364746,0.000248548824425352
350,0.34285831451416,0.000177777785132477
351,0.333031177520752,0.000235281330577058
352,0.323791027069092,0.000187890783020397
353,0.313982009887695,0.00019563577392698
354,0.304515361785889,0.000228734763895193
355,0.295473098754883,0.000155238143228001
356,0.286043167114258,0.000213840067844498
357,0.27625036239624,0.00023663040973077
358,0.26691198348999,0.000294245233827119
359,0.257832527160645,0.00023554404216102
360,0.249074459075928,0.000275042053720272
361,0.239516258239746,0.000259511586787338
362,0.230969905853271,0.000250821784362996
363,0.222858428955078,0.000258500279939231
364,0.215280055999756,0.000259770800693119
365,0.207277774810791,0.000259770800693119
366,0.200087070465088,0.000213107269792303
367,0.194242477416992,0.000187643752585683
368,0.187852382659912,0.000215884567530085
369,0.181076049804687,0.000158682923823848
370,0.174706935882568,0.0001465744993008
371,0.168130874633789,0.000159788124599018
372,0.161906719207764,0.000156286242871258
373,0.155907154083252,0.000167494100107699
374,0.149591445922852,0.000213213937568392
375,0.144108772277832,0.000203219918851733
376,0.137845516204834,0.00023243451610016
377,0.132447719573975,0.000168109276567922
378,0.127318382263184,0.000200462250568867
379,0.121779441833496,0.000167727428035012
380,0.116820335388184,0.000110065750474957
381,0.111949443817139,0.000137153486710216
382,0.107597827911377,0.000212440453048322
383,0.102987766265869,0.000187905304108821
384,0.0984363555908203,0.000230232860836002
385,0.0942544937133789,0.000183368533627079
386,0.0901651382446289,0.000193555949935491
387,0.0864114761352539,0.00016568152911206
388,0.082575798034668,0.000179938910142071
389,0.0784215927124023,0.000240337280731889
390,0.0749459266662598,0.000184160412220196
391,0.0722370147705078,0.000162281633540388
392,0.0689187049865723,0.000254786369010873
393,0.06597900390625,0.00021655757849177
394,0.0620412826538086,0.000174044909541328
395,0.0596680641174316,0.0001827425141003
396,0.0572972297668457,0.000152897520628594
397,0.0546364784240723,0.0001942126779382
398,0.0520205497741699,0.000145083925290959
399,0.0493845939636231,0.000166762164462179
400,0.0470848083496094,0.000177900524541932
401,0.0450754165649414,0.000158946355182648
402,0.0433387756347656,0.000197057823460265
403,0.0413680076599121,0.000211810185423305
404,0.0392031669616699,0.000227518791413167
405,0.037379264831543,0.000186354891785801
406,0.0355062484741211,0.000137976603442435
407,0.0339603424072266,0.000205648981598356
408,0.0324673652648926,0.000183452833023656
409,0.0312919616699219,0.000177849393415493
410,0.0296797752380371,0.000168195816531348
411,0.0284090042114258,0.000137199897385509
412,0.0267338752746582,0.000192967696985758
413,0.025662899017334,0.000205675515239083
414,0.0245852470397949,0.000157043840464937
415,0.0233416557312012,0.00011246889486546
416,0.0223650932312012,0.000136034880442384
417,0.0217814445495605,0.00016755653359099
418,0.020756721496582,0.000174259028755455
419,0.0196294784545898,0.00016639908864166
420,0.0189342498779297,0.000150716753121478
421,0.0181336402893066,0.000183750051179906
422,0.0172386169433594,0.000132543576454862
423,0.0165219306945801,0.00010575469893911
424,0.0154519081115723,0.000156431660625023
425,0.0151453018188477,0.000135277281516052
426,0.0143170356750488,0.000156881599063361
427,0.0142621994018555,0.000114468730090111
428,0.0133275985717773,0.00013439365789541
429,0.0131840705871582,0.000195761254475711
430,0.0125079154968262,0.0000995025593816566
431,0.0117201805114746,0.000112199692132332
432,0.0114102363586426,0.000174535427753744
433,0.011441707611084,0.000168260692294693
434,0.010737419128418,0.00010537130216166
435,0.00981950759887695,0.000123977661132812
436,0.0104942321777344,0.000146887517543729
437,0.00968742370605469,0.000171029730159469
438,0.00914144515991211,0.000130014878099207
439,0.00892543792724609,0.000140190124511719
440,0.00833702087402344,0.000205640136290643
441,0.00884532928466797,0.000199457056142297
442,0.00826120376586914,0.000183184924370468
443,0.00802993774414063,0.000131669237125441
444,0.00762224197387695,0.000118359397140271
445,0.00747251510620117,0.000148448835037389
446,0.00722980499267578,0.000126396930070881
447,0.00688314437866211,0.000112025276801326
448,0.00679206848144531,0.000133980210960023
449,0.00673723220825195,0.000138147880266051
450,0.00659370422363281,0.000154371565308687
451,0.00623750686645508,0.000170947285040348
452,0.00615119934082031,0.000158033934680766
453,0.00587272644042969,0.000129243103076186
454,0.00558996200561523,0.0000928792616589744
455,0.00611686706542969,0.000110850025567445
456,0.00573062896728516,0.000113178281396078
457,0.00546503067016602,0.000146782219598625
458,0.00555229187011719,0.000149863478424801
459,0.00516796112060547,0.000126652114294113
460,0.00501203536987305,0.000127246745245855
461,0.00520801544189453,0.0000867162164433999
462,0.00483083724975586,0.000118511062488396
463,0.00502634048461914,0.000102578745128618
464,0.00512075424194336,0.000117669653436181
465,0.0049433708190918,0.000126964105534688
466,0.00492095947265625,0.000111907494369512
467,0.00448751449584961,0.0000964484930402415
468,0.00456905364990234,0.000132361612411801
469,0.00433921813964844,0.0000916817868160596
470,0.00424814224243164,0.0000747114205356578
471,0.00416946411132813,0.000101840182794748
472,0.00423431396484375,0.000113395044396418
473,0.00436687469482422,0.000119045144558801
474,0.00401878356933594,0.000118115172513297
475,0.00414848327636719,0.000126342951963363
476,0.0038447380065918,0.000143717169041361
477,0.00407123565673828,0.00010402921443708
478,0.00427961349487305,0.000138699790669997
479,0.00383138656616211,0.000140186880683998
480,0.00406694412231445,0.0000989526147167792
481,0.00377368927001953,0.000109769943775328
482,0.00378274917602539,0.000107236425757375
483,0.00377511978149414,0.000129993890467749
484,0.00357484817504883,0.000117936010082644
485,0.00461959838867188,0.000127991478498898
486,0.00439834594726563,0.0000900906805314601
487,0.00315332412719727,0.0000939695911426317
488,0.00329351425170898,0.000124603306753736
489,0.00357484817504883,0.000124942254906939
490,0.00359487533569336,0.000115238825436297
491,0.00357151031494141,0.000115504882062652
492,0.00356960296630859,0.0000910097151355066
493,0.00349617004394531,0.000083473746075984
494,0.00332260131835937,0.0000891902203666799
495,0.00315046310424805,0.0000942836211392446
496,0.00330018997192383,0.0000911644809385817
497,0.00330877304077148,0.000075186197662002
498,0.00308465957641602,0.000101694956875255
499,0.00329828262329102,0.0000988629597604825
500,0.00317573547363281,0.0000789248326728843
501,0.00326251983642578,0.0000824238924618847
502,0.00313472747802734,0.0000657897050133025
503,0.00313472747802734,0.0000899290102701285
504,0.00297164916992187,0.0000930333613787123
505,0.00304508209228516,0.0000996874809538384
506,0.00296449661254883,0.000107490560940593
507,0.00306367874145508,0.00010522662803081
508,0.00304698944091797,0.0000879761326274781
509,0.0027928352355957,0.0000773020540757073
510,0.00299406051635742,0.0000744629736806063
511,0.00286388397216797,0.0000796003907878382
512,0.00282812118530273,0.0000880871957107033
513,0.00278234481811523,0.000122661203530006
514,0.00289773941040039,0.000129818861587415
515,0.00287246704101562,0.000094056658265884
516,0.00279951095581055,0.0000988054458460191
517,0.00275802612304687,0.0000880226412032925
518,0.00277233123779297,0.0000972350357241693
519,0.00281333923339844,0.0000993447620979029
520,0.00264739990234375,0.0000852245544919925
521,0.00278568267822266,0.0000741922456110152
522,0.00261592864990234,0.0000903376774054352
523,0.002716064453125,0.000107984404297244
524,0.00264167785644531,0.00010438487090853
525,0.00259065628051758,0.000110759736749706
526,0.00269174575805664,0.000102270176837574
527,0.00272274017333984,0.0000965804206937573
528,0.00265789031982422,0.000104789237433314
529,0.00274753570556641,0.000076785589650132
530,0.00256156921386719,0.0000848354816618885
531,0.00261735916137695,0.0000885608692410979
532,0.0027923583984375,0.0000886224660972607
533,0.00274515151977539,0.0000803693434836402
534,0.00255298614501953,0.0000908621932122693
535,0.00267887115478516,0.0000928229392835943
536,0.00249862670898437,0.0000911719629428569
537,0.00257349014282227,0.0000780703448431687
538,0.00261163711547852,0.0000610798433746564
539,0.00259876251220703,0.0000984850559580355
540,0.00262975692749023,0.0000855813112389463
541,0.00256443023681641,0.0000738220309462113
542,0.00257539749145508,0.0000792841259730067
543,0.00250864028930664,0.0000995688053392015
544,0.00256538391113281,0.0000908521830554457
545,0.00243616104125977,0.0000659450446699921
546,0.00248336791992187,0.0000697259200608152
547,0.0023503303527832,0.0000839341763522649
548,0.00255203247070312,0.0000762059777477829
549,0.00239276885986328,0.000093350540893116
550,0.00249767303466797,0.000106250190521036
551,0.00239276885986328,0.0000793744113228975
552,0.00252628326416016,0.0000885762724709285
553,0.00231361389160156,0.0000790931851202722
554,0.00236177444458008,0.000071709713734083
555,0.00245141983032227,0.0000902041814408373
556,0.00241327285766602,0.0000990628478902656
557,0.00244665145874023,0.000093328617041502
558,0.00240182876586914,0.000072620279731149
559,0.00235939025878906,0.000092085144578156
560,0.00249481201171875,0.000105838516119541
561,0.00237035751342773,0.0000743437912853123
562,0.00217151641845703,0.0000599431913817524
563,0.00233745574951172,0.0000628647902476324
564,0.00240421295166016,0.0000670494765890352
565,0.00217437744140625,0.0000719423864916524
566,0.00223064422607422,0.0000982677973502717
567,0.00245141983032227,0.0000672627786667294
568,0.00243425369262695,0.0000468915464489472
569,0.0023956298828125,0.0000629984722422823
570,0.00249004364013672,0.0000773446921314671
571,0.00239658355712891,0.0000801540427759197
572,0.00237751007080078,0.0000737480733077286
573,0.00239276885986328,0.000066690752472476
574,0.00255393981933594,0.0000702942722754302
575,0.00225830078125,0.0000489705029063391
576,0.00244569778442383,0.0000681076379910313
577,0.00239419937133789,0.0000771769447562606
578,0.00268125534057617,0.0000722703306939057
579,0.00198793411254883,0.0000748588779302355
580,0.00257349014282227,0.0000630417676867666
581,0.00234365463256836,0.0000778223953570303
582,0.00273799896240234,0.0000675696929318175
583,0.00161838531494141,0.0000713234270116869
584,0.00230646133422852,0.0000851591649692615
585,0.00251007080078125,0.000055223631009581
586,0.00211238861083984,0.0000696312879038689
587,0.00230503082275391,0.0000881233255789189
588,0.00222587585449219,0.0000566493782420053
589,0.00207710266113281,0.0000600104820719483
590,0.00224637985229492,0.0000597361068567921
591,0.00207948684692383,0.0000539542877508331
592,0.0022735595703125,0.0000594279531350526
593,0.00244235992431641,0.0000523815981849657
594,0.00201416015625,0.000076223877680166
595,0.00230598449707031,0.0000781431214356289
596,0.00204658508300781,0.0000741861160467606
597,0.00212812423706055,0.0000805149107964605
598,0.00212574005126953,0.0000659829609625622
599,0.00236272811889648,0.0000760910196507214
600,0.00192928314208984,0.0000728999651312308
601,0.00219440460205078,0.0000763013955293346
602,0.00208711624145508,0.0000667486866560694
603,0.00207853317260742,0.0000765007910562587
604,0.0020604133605957,0.0000689190545495882
605,0.00200605392456055,0.0000716129405179127
606,0.00214099884033203,0.0000686430235072006
607,0.00203371047973633,0.000077304995386291
608,0.00213241577148437,0.0000628068936922105
609,0.00191688537597656,0.0000669221882876325
610,0.00218296051025391,0.000060448396597515
611,0.00189542770385742,0.0000805586708213382
612,0.00194740295410156,0.0000772564494420035
613,0.00195646286010742,0.0000795789646102844
614,0.00196695327758789,0.0000635697438539166
615,0.00195837020874023,0.0000793686819731482
616,0.00185918807983398,0.0000826621660399727
617,0.00181341171264648,0.0000784523933387175
618,0.00184011459350586,0.0000538446073026506
619,0.00174856185913086,0.0000568647054447302
620,0.00191783905029297,0.0000730868644640598
621,0.00172138214111328,0.0000656842103669925
622,0.00188779830932617,0.0000724447318759665
623,0.00185203552246094,0.0000887711487112313
624,0.00191259384155273,0.0000762179115031312
625,0.00182533264160156,0.0000819743960273529
626,0.00173521041870117,0.0000671257337111374
627,0.00180673599243164,0.0000944931967638714
628,0.00188207626342773,0.000090201660750014
629,0.00185680389404297,0.0000607569882467924
630,0.00192975997924805,0.0000550979094674227
631,0.00178718566894531,0.0000572095304225407
632,0.00182056427001953,0.0000640791791834862
633,0.00182723999023437,0.0000559618737956241
634,0.00178813934326172,0.0000888607506202404
635,0.00173139572143555,0.0000838813351502634
636,0.00181674957275391,0.0000721333431142833
637,0.00172138214111328,0.0000552709599737289
638,0.00169563293457031,0.0000573880998287754
639,0.0017242431640625,0.0000691956274448291
640,0.00164413452148437,0.0000641979379815584
641,0.00182294845581055,0.0000859484923746494
642,0.00165367126464844,0.000064547619854041
643,0.001708984375,0.0000832678380826951
644,0.0016474723815918,0.0000871816908686472
645,0.00162696838378906,0.0000996966039959509
646,0.00172996520996094,0.0000886737641254608
647,0.00165605545043945,0.0000806588059387021
648,0.00169563293457031,0.0000695986262913473
649,0.00159025192260742,0.0000885865398028827
650,0.00161266326904297,0.0000695773880212663
651,0.00153398513793945,0.0000732096460689974
652,0.00170469284057617,0.000070869296009383
653,0.00168466567993164,0.0000677796806744507
654,0.00174617767333984,0.0000680809251840065
655,0.00155496597290039,0.000089307411714805
656,0.00494480133056641,0.0000602873801218801
657,-0.000583648681640625,0.0000567746678539028
658,0.000956535339355469,0.0000730308448867456
659,0.00146198272705078,0.0000683741920668047
660,0.00149106979370117,0.0000542495268928631
661,0.00167512893676758,0.0000574247369602438
662,0.00168228149414062,0.000069166047532916
663,0.00154399871826172,0.0000695773880212663
664,0.00147628784179687,0.0000668031670501056
665,0.00154256820678711,0.0000892794016911961
666,0.0015254020690918,0.0000812570253036377
667,0.00147056579589844,0.0000843341482903829
668,0.00164461135864258,0.0000619429638708428
669,0.00148200988769531,0.0000691956274448291
670,0.00159740447998047,0.0000614361702286011
671,0.00143861770629883,0.000044275299466337
672,0.00159978866577148,0.0000639779720320132
673,0.00152063369750977,0.0000758246052232227
674,0.00149965286254883,0.000072856286298591
675,0.00153160095214844,0.0000713313963768315
676,0.00156450271606445,0.0000447312904341071
677,0.00153827667236328,0.0000403561741717548
678,0.00147199630737305,0.0000497946777347584
679,0.00151205062866211,0.0000504468023010218
680,0.00154495239257812,0.0000599773200400566
681,0.00153255462646484,0.0000611895604946114
682,0.0015864372253418,0.0000646918841139144
683,0.00155401229858398,0.0000638872823641878
684,0.00161123275756836,0.0000656530484088694
685,0.00162458419799805,0.000055540783706555
686,0.00157546997070312,0.0000696051598399457
687,0.00163412094116211,0.0000618069989655034
688,0.00161457061767578,0.0000464946794727798
689,0.00165700912475586,0.000050966955521212
690,0.00159358978271484,0.0000603778282019264
691,0.00159120559692383,0.000054729398986755
692,0.00171089172363281,0.0000572373444756464
693,0.00170087814331055,0.0000608373954806165
694,0.00163459777832031,0.0000595807981472006
695,0.00162839889526367,0.0000623691337079714
696,0.00165891647338867,0.0000711830201470296
697,0.00162839889526367,0.000078114018935109
698,0.00157833099365234,0.0000773432222449776
699,0.00156307220458984,0.0000825520672084264
700,0.00153255462646484,0.0000696769884399713
701,0.00145053863525391,0.0000549615589762614
702,0.00153350830078125,0.0000784857159941097
703,0.00133562088012695,0.0000588029350398681
704,0.00141716003417969,0.0000624565671159094
705,0.00133657455444336,0.0000583653356496003
706,0.00120162963867187,0.0000593561715493248
707,0.00132942199707031,0.0000592862206742781
708,0.00129413604736328,0.0000610388814266186
709,0.00124597549438477,0.0000648165364792396
710,0.00115489959716797,0.0000494061746416459
711,0.00126171112060547,0.000064183769378874
712,0.00130224227905273,0.0000674602409867938
713,0.00124740600585937,0.0000663557927008501
714,0.00121974945068359,0.0000674770913032766
715,0.00123167037963867,0.0000747981059784014
716,0.00134372711181641,0.0000666515331467317
717,0.00130462646484375,0.0000603109473719582
718,0.00134563446044922,0.0000632038614632219
719,0.00136137008666992,0.0000719265822722021
720,0.00136375427246094,0.0000543018923241682
721,0.00139808654785156,0.0000662168706391905
722,0.0014801025390625,0.0000656201391765053
723,0.00148916244506836,0.0000862416390001
724,0.00148820877075195,0.0000626963802867645
725,0.00153303146362305,0.0000768669781510099
726,0.00154972076416016,0.0000603184869472443
727,0.00156641006469727,0.0000698546093589192
728,0.00154542922973633,0.0000630525869027189
729,0.00159454345703125,0.0000641926251220317
730,0.0015568733215332,0.0000609941642913661
731,0.00155258178710937,0.00005559397782404
732,0.00152254104614258,0.0000503723786524793
733,0.00150299072265625,0.0000707649477351728
734,0.00148534774780273,0.0000692219100884299
735,0.00149297714233398,0.0000742979009959958
736,0.00149822235107422,0.0000815042900818691
737,0.00148534774780273,0.0000693793968634293
738,0.00144529342651367,0.000064547619854041
739,0.00136470794677734,0.0000607242338897793
740,0.00134897232055664,0.0000552061296020748
741,0.00131940841674805,0.0000627145105842103
742,0.00128602981567383,0.0000664807453573254
743,0.00130987167358398,0.0000600227947316519
744,0.00126123428344727,0.000056465452835364
745,0.00122737884521484,0.0000761582240265712
746,0.00121164321899414,0.0000715478226707768
747,0.00123167037963867,0.0000790442991461407
748,0.00120115280151367,0.0000609820477576129
749,0.00130319595336914,0.0000764428116888113
750,0.00131940841674805,0.0000578694494423927
751,0.00134563446044922,0.0000549956782915337
752,0.00127649307250977,0.0000589795715532591
753,0.00132513046264648,0.0000674585557236504
754,0.00131130218505859,0.000060767278826979
755,0.00137042999267578,0.000061172836704249
756,0.00139141082763672,0.0000483643121125717
757,0.00139904022216797,0.0000734948231770743
758,0.00144720077514648,0.0000592133073064861
759,0.00141382217407227,0.0000489449593366865
760,0.00143957138061523,0.0000510293740703687
761,0.00146245956420898,0.0000518043578404025
762,0.00141239166259766,0.0000603458100111251
763,0.00152111053466797,0.0000543113127398432
764,0.00145339965820312,0.0000693793968634293
765,0.00150489807128906,0.0000585792071454476
766,0.00145626068115234,0.0000511906398620221
767,0.00141000747680664,0.000050497482809501
768,0.00148868560791016,0.0000351592637858928
769,0.00155162811279297,0.0000393202765706845
770,0.00139665603637695,0.0000609755224729377
771,0.00145387649536133,0.000049396969522624
772,0.00143051147460937,0.0000589920993820053
773,0.00134897232055664,0.0000698692551253138
774,0.00130558013916016,0.0000556777575966654
775,0.00135087966918945,0.0000638463409550325
776,0.00140047073364258,0.0000643677179487247
777,0.00135612487792969,0.0000761791199630031
778,0.00127983093261719,0.0000757075664023946
779,0.00127124786376953,0.0000504231339645427
780,0.00131940841674805,0.0000447401849768694
781,0.00122261047363281,0.0000507142714605674
782,0.00119447708129883,0.0000533237423504328
783,0.00113677978515625,0.0000608336579659159
784,0.00118589401245117,0.0000493036708994735
785,0.00112581253051758,0.0000535503202109011
786,0.00124549865722656,0.000063947756433252
787,0.00112581253051758,0.0000673151541475482
788,0.00114917755126953,0.0000757135727942802
789,0.00113487243652344,0.0000633655405930703
790,0.0011448860168457,0.0000598663307642446
791,0.00110340118408203,0.0000720939307220576
792,0.0011444091796875,0.0000624929615989909
793,0.00120830535888672,0.0000517999685705077
794,0.00115966796875,0.000054987408886436
795,0.00119161605834961,0.0000623326669249275
796,0.00116586685180664,0.0000517000120084407
797,0.0011749267578125,0.000048864758800869
798,0.00117683410644531,0.0000779275055659928
799,0.00125265121459961,0.0000571419256431084
800,0.00123023986816406,0.0000650493973838232
801,0.00121259689331055,0.0000585908504106394
802,0.00122165679931641,0.000044149301610978
803,0.00122451782226562,0.0000386399953390005
804,0.00129508972167969,0.0000652605264668251
805,0.00128412246704102,0.0000672222018812148
806,0.00125503540039062,0.0000571985997726576
807,0.00121974945068359,0.0000599147359828761
808,0.00126266479492187,0.0000617922821371585
809,0.00124359130859375,0.0000741815185411913
810,0.00110340118408203,0.0000791750732994287
811,0.00118827819824219,0.000061412109185216
812,0.00123214721679687,0.0000588222653937893
813,0.00108814239501953,0.0000690047789006831
814,0.00115156173706055,0.0000534674594622538
815,0.00108623504638672,0.0000802079221336073
816,0.00113248825073242,0.0000706395263381428
817,0.00109481811523437,0.0000724211886912182
818,0.00096893310546875,0.0000638267509976529
819,0.0010828971862793,0.0000637786410460385
820,0.00105762481689453,0.0000639815258702069
821,0.00105142593383789,0.0000755527373561166
822,0.000993251800537109,0.0000596770800095593
823,0.000998497009277344,0.0000586500012697607
824,0.00105190277099609,0.0000513480782545921
825,0.00101661682128906,0.0000617738811712828
826,0.00107812881469727,0.0000511961916911
827,0.00105619430541992,0.0000565278333906533
828,0.00106668472290039,0.0000675107793190064
829,0.00106048583984375,0.0000789478764201411
830,0.00102615356445312,0.0000612378480115462
831,0.00106525421142578,0.00007437589764069
832,0.00104093551635742,0.0000764472732013209
833,0.0011296272277832,0.0000817188157511336
834,0.00116539001464844,0.0000986303975971062
835,0.00110435485839844,0.0000798798313340947
836,0.00119876861572266,0.0000577553937359095
837,0.00102663040161133,0.0000935500548787119
838,0.00121259689331055,0.0000895464127599818
839,0.00118017196655273,0.0000604333489209965
840,0.0012049674987793,0.0000591316529531014
841,0.00134658813476562,0.0000714778741094713
842,0.00127983093261719,0.0000717778525164148
843,0.00130414962768555,0.0000677276644244563
844,0.00127792358398437,0.0000677545165077492
845,0.00132274627685547,0.0000658467054379108
846,0.00136709213256836,0.0000631750751883609
847,0.00132036209106445,0.0000686363983722072
848,0.00142240524291992,0.000065633997706581
849,0.00135183334350586,0.0000598758250678115
850,0.00137901306152344,0.0000766017783224612
851,0.00134086608886719,0.0000910272018712113
852,0.00139951705932617,0.0000686926916525579
853,0.00136041641235352,0.000051858096246438
854,0.00142288208007812,0.0000546971920804171
855,0.00141239166259766,0.0000713186449651499
856,0.00129413604736328,0.0000664619319071878
857,0.00136518478393555,0.0000632344325217257
858,0.00142765045166016,0.0000643571198227043
859,0.00137567520141602,0.0000795646772864094
860,0.00127410888671875,0.0000609428855694204
861,0.00126886367797852,0.0000714683303649719
862,0.00120639801025391,0.0000873848815075326
863,0.00125789642333984,0.0000619246076802276
864,0.00120210647583008,0.0000710823312483454
865,0.00124883651733398,0.0000631048536303886
866,0.00119543075561523,0.0000782114696860331
867,0.00113391876220703,0.0000661189356973252
868,0.00109767913818359,0.0000814498724885876
869,0.00117254257202148,0.0000824790457970148
870,0.00104093551635742,0.0000843718853100765
871,0.00104808807373047,0.0000711654498111447
872,0.00105142593383789,0.0000759908496809436
873,0.000975131988525391,0.000059340846906573
874,0.00104808807373047,0.0000740710927990481
875,0.00100803375244141,0.000077053107745072
876,0.00105190277099609,0.0000602770076127301
877,0.00106239318847656,0.0000510594414641612
878,0.00105428695678711,0.0000482784377022349
879,0.0010991096496582,0.0000573504481423125
880,0.00112485885620117,0.0000680692350345013
881,0.000997543334960938,0.000057276062969577
882,0.000917911529541016,0.0000643041029920379
883,0.00119352340698242,0.0000759699019597601
884,0.00116586685180664,0.0000756249301383057
885,0.00112438201904297,0.0000851311255128086
886,0.00116729736328125,0.0000864983130710362
887,0.00113344192504883,0.0000703637817543683
888,0.00123929977416992,0.0000784639854326582
889,0.00114059448242187,0.0000642368855249363
890,0.00134086608886719,0.0000531143942642849
891,0.001251220703125,0.0000692481827566454
892,0.00131511688232422,0.0000788066277102151
893,0.00128698348999023,0.0000831161499408612
894,0.00126171112060547,0.000093057798184413
895,0.00144815444946289,0.0000560248150613288
896,0.00144004821777344,0.0000614047038904604
897,0.00138378143310547,0.0000701761101545602
898,0.00147676467895508,0.0000722860597581644
899,0.00140094757080078,0.0000814554554533271
900,0.00150918960571289,0.0000739789454366484
901,0.00150966644287109,0.0000703880130981691
902,0.00144481658935547,0.000066993499532223
903,0.00144577026367187,0.000085763109941939
904,0.00155735015869141,0.0000789766716490303
905,0.0015721321105957,0.0000916148015077884
906,0.00142621994018555,0.0000616983798350539
907,0.0015864372253418,0.0000688348750457318
908,0.00141668319702148,0.000106042408934919
909,0.00143814086914062,0.0000833251615860092
910,0.00150203704833984,0.0000647621403076354
911,0.00139188766479492,0.0000939671714598374
912,0.00132513046264648,0.0000896834231902914
913,0.00132131576538086,0.000101473367274976
914,0.00142908096313477,0.000083462849786922
915,0.00137805938720703,0.0000690130160151647
916,0.00126123428344727,0.000109332012079727
917,0.00145339965820312,0.000110796681977305
918,0.00121927261352539,0.000120663357873598
919,0.00116682052612305,0.0000864509844467895
920,0.00117635726928711,0.0000858757112886164
921,0.00122880935668945,0.0000957766336957076
922,0.00103425979614258,0.0000894168212546488
923,0.00107240676879883,0.0000825217642778243
924,0.00113248825073242,0.0000815990852380075
925,0.00102567672729492,0.0000920604495886862
926,0.00111103057861328,0.0000999721825198525
927,0.00105619430541992,0.0000993859507606829
928,0.000871181488037109,0.00007361538005413
929,0.000966072082519531,0.000112359672281963
930,0.00104236602783203,0.000121062183904471
931,0.000970840454101563,0.000105784794798752
932,0.000878334045410156,0.0000992279680402341
933,0.000872135162353516,0.0000819272292896825
934,0.000866413116455078,0.0000843705378500177
935,0.000895977020263672,0.000106890257699298
936,0.000951290130615234,0.0000925162398629831
937,0.000877857208251953,0.0000865193397047278
938,0.00102567672729492,0.0000603985368101845
939,0.001007080078125,0.000103639434714486
940,0.000908851623535156,0.000107378392061561
941,0.000935077667236328,0.0000987709214220831
942,0.000842094421386719,0.0000867057276358086
943,0.000952720642089844,0.000101665886797384
944,0.00112342834472656,0.000117586534959165
945,0.000885963439941406,0.000163768401288472
946,0.0010380744934082,0.000109073829097046
947,0.000982284545898438,0.000134325966918065
948,0.00108480453491211,0.000105842812647284
949,0.000962257385253906,0.00013945184012163
950,0.00110626220703125,0.000126014989159843
951,0.00118446350097656,0.000118449651822621
952,0.00117778778076172,0.000103567010989789
953,0.00108480453491211,0.0000839463657522593
954,0.00123310089111328,0.0000655750787264675
955,0.00104045867919922,0.0000974149255417194
956,0.0011601448059082,0.00011979341447644
957,0.00117254257202148,0.000131427255073183
958,0.00117111206054687,0.000116090018911495
959,0.00123262405395508,0.000148264921481285
960,0.0013885498046875,0.000178818384750933
961,0.00128650665283203,0.000154739351858459
962,0.00149679183959961,0.000128512700887868
963,0.00114250183105469,0.000143124243816454
964,0.00126457214355469,0.000141176013878605
965,0.00127458572387695,0.00018330404322409
966,0.00125360488891602,0.000134248080099241
967,0.00118780136108398,0.000175076527379176
968,0.00129890441894531,0.000157858307775918
969,0.00126123428344727,0.000145046307920648
970,0.00119924545288086,0.000185282991699511
971,0.00109672546386719,0.000152068446060577
972,0.00146675109863281,0.000156933766377122
973,0.00130271911621094,0.000129158630450772
974,0.00114154815673828,0.000127143064416869
975,0.00118064880371094,0.000133405368423811
976,0.00133514404296875,0.000132000376880393
977,0.00144338607788086,0.000137606975444243
978,0.00126409530639648,0.00016326503213965
979,0.00104284286499023,0.000164922250018672
980,0.00124168395996094,0.000167483239734848
981,0.0011448860168457,0.000141195339380812
982,0.00109338760375977,0.00018613514222021
983,0.000835895538330078,0.000210444612684979
984,0.00112628936767578,0.000187939182285263
985,0.00113058090209961,0.000176792802232242
986,0.000951290130615234,0.000186491494164739
987,0.000753402709960938,0.00022050303117368
988,0.00101375579833984,0.000246992442427134
989,0.000561714172363281,0.000213213937568392
990,0.000763893127441406,0.00018815199114495
991,0.000881671905517578,0.000174925812121735
992,0.00119686126708984,0.000274525716405061
993,0.000932216644287109,0.000243577456624079
994,0.000935077667236328,0.000206883592064315
995,0.000964641571044922,0.000251784468727482
996,0.000674724578857422,0.000219597878125915
997,0.000547409057617188,0.000316033337117931
998,0.000679492950439453,0.000273350410131129
999,0.000567436218261719,0.000254314740493894
1000,0.000990390777587891,0.000201245618759635
1001,0.000488758087158203,0.000231068812180012
1002,0.000811100006103516,0.000251111701565898
1003,0.000853061676025391,0.000242169439359557
1004,0.000749111175537109,0.000249264999641585
1005,0.000453948974609375,0.000265169482375836
1006,0.000928401947021484,0.00030933172902909
1007,0.000924587249755859,0.000198927410062415
1008,0.000974178314208984,0.000156041635968945
1009,0.000638484954833984,0.000242986783693465
1010,0.000478267669677734,0.000289408337951194
1011,0.00103950500488281,0.000276078419995802
1012,0.000234127044677734,0.00024437148384869
1013,0.00086212158203125,0.000295811264570802
1014,0.000781059265136719,0.000374346021281344
1015,0.000571250915527344,0.000337676131449464
1016,0.0000562667846679688,0.000334694851212217
1017,0.000359058380126953,0.000293291678868807
1018,0.000810623168945313,0.000326418631977561
1019,0.000712871551513672,0.000389192607345092
1020,0.000620365142822266,0.000333016735248221
1021,0.000804901123046875,0.000241977827290314
1022,0.000501632690429688,0.000248109329519869
1023,0.000138282775878906,0.000338268159038736
1024,0.000726222991943359,0.000417321604345012
1025,0.0000271797180175781,0.000465158497214215
1026,0.00101137161254883,0.000350838103630636
1027,-0.000320911407470703,0.000306519886258544
1028,0.000857353210449219,0.000439940619282754
1029,0.000490665435791016,0.000467638944113829
1030,0.0000329017639160156,0.000433047955252029
1031,0.000547409057617188,0.000569413051486565
1032,0.000607490539550781,0.000466774625227982
1033,0.000236034393310547,0.00050722565120223
1034,0.000201702117919922,0.000486153197234699
1035,0.000581741333007813,0.000392571086844178
1036,-0.0000824928283691406,0.000390480431984533
1037,0.000190258026123047,0.000426913881570605
1038,-0.000510215759277344,0.000440684223316617
1039,-0.0000128746032714844,0.00040649353920832
1040,-0.000740528106689453,0.000530503572576674
1041,-0.000355243682861328,0.000766478911386104
1042,-0.00074005126953125,0.000602504835903281
1043,0.000300407409667969,0.000721250210109958
1044,-0.0000395774841308594,0.000744540568880841
1045,0.000404834747314453,0.000695154659700707
1046,-0.000382423400878906,0.000898683089400463
1047,-0.00159931182861328,0.000694735866566907
1048,-0.000186443328857422,0.000784845571827203
1049,-0.000369548797607422,0.00064800468040729
1050,-0.000947475433349609,0.000647903618289556
1051,-0.00214481353759766,0.000515224259517997
1052,-0.00168704986572266,0.000646138102809179
1053,0.000565528869628906,0.000823161819263791
1054,-0.00215053558349609,0.00064853219337631
1055,-0.00133180618286133,0.00069805833089871
1056,-0.00114297866821289,0.000861631946437004
1057,-0.000527381896972656,0.00091493905558077
1058,-0.000211715698242187,0.000967821098870818
1059,-0.00202846527099609,0.00104775783692034
1060,-0.000356674194335937,0.000949606804351905
1061,-0.0019378662109375,0.00113918383067254
1062,-0.00380182266235352,0.000938431034115084
1063,0.000401973724365234,0.000848767998510506
1064,-0.00253200531005859,0.00114061361953858
1065,-0.000685214996337891,0.00134904437514875
1066,-0.00232219696044922,0.0011444091796875
1067,-0.00109195709228516,0.000955290378786127
1068,-0.00335836410522461,0.00105583763989296
1069,-0.000506401062011719,0.00114423114663368
1070,-0.00247812271118164,0.00160659905251646
1071,-0.000591754913330078,0.00220398405587488
1072,-0.000805377960205078,0.000839510785124446
1073,-0.00333023071289062,0.00120067861555199
1074,-0.0012054443359375,0.00125489045671443
1075,-0.000019073486328125,0.0012756612309535
1076,-0.00398492813110352,0.00160869904090627
1077,-0.0014958381652832,0.0015537014235056
1078,-0.00156497955322266,0.00199242627825937
1079,-0.00155735015869141,0.00122662538166802
1080,-0.00221681594848633,0.00173098167326568
1081,-0.00117921829223633,0.00224028956936437
1082,-0.00270795822143555,0.00279214993725376
1083,-0.00115203857421875,0.00220128856711798
1084,-0.00423622131347656,0.00179590826358565
1085,-0.00280904769897461,0.00193906731816261
1086,0.000447750091552734,0.00167978408447075
1087,-0.00159740447998047,0.00199002925051585
1088,-0.00146341323852539,0.0025428670109849
1089,-0.000161170959472656,0.00251894833231157
1090,-0.00261211395263672,0.0025368167041773
1091,-0.000667572021484375,0.00269955536086336
1092,0,0.00253814717446781
1093,-0.00302457809448242,0.00253966031006107
1094,0.0031890869140625,0.00245557488367753
1095,-0.00200462341308594,0.00190667712788808
1096,-0.00165939331054687,0.00306667496785478
1097,-0.00132513046264648,0.00297714577113979
1098,-0.000131607055664062,0.00269869274529225
1099,-0.00453567504882813,0.00319758109911477
1100,0.00187492370605469,0.0024973655021955
