Wavelength (nm),Absorbance (AU),Std.Dev.
190,0.971428871154785,1.27324576777473
191,1.54141712188721,0.698028403679786
192,1.42770910263062,0.260901241867134
193,0.913633346557617,0.140152880437826
194,0.711133003234863,0.211934312828531
195,1.35295534133911,0.344719646265606
196,0.975324630737305,0.199051131997319
197,1.14297866821289,0.265883376175651
198,1.7268762588501,0.400919049166256
199,1.36504697799683,0.234501105397431
200,1.21678829193115,0.194843186145936
201,1.99019622802734,0.2762895346958
202,2.15758419036865,0.32646997044378
203,2.85661220550537,0.62306830390265
204,3.46051692962646,0.398265128155463
205,3.32588338851929,0.261208107249696
206,3.28352212905884,0.116126791358164
207,3.02063941955566,0.0461483906309278
208,3.09591102600098,0.064838528710157
209,2.96614122390747,0.0380091749458722
210,2.9834566116333,0.0361460068814878
211,2.9096827507019,0.0286753531277106
212,2.97344589233398,0.0343223862710742
213,3.00507211685181,0.0345836204302411
214,2.95666408538818,0.022415779162379
215,2.96073007583618,0.0374817485898931
216,2.87618446350098,0.0324174257465782
217,2.7864031791687,0.0332667918432884
218,2.83182716369629,0.0219156160670901
219,2.7311544418335,0.0175475808848305
220,2.64802169799805,0.0170195085841867
221,2.57844734191895,0.0118941844770623
222,2.5105562210083,0.0155717418912235
223,2.41322135925293,0.017333984375
224,2.33583164215088,0.01031494140625
225,2.25736904144287,0.00641972636269523
226,2.14275312423706,0.00810044834049994
227,2.05789184570312,0.00476943957766351
228,1.96316242218018,0.00337139827992698
229,1.87361240386963,0.00191438521370014
230,1.7869439125061,0.00138216331566859
231,1.70808982849121,0.00146992121323148
232,1.63703203201294,0.000996417619375036
233,1.56867980957031,0.000827973868191721
234,1.5095362663269,0.000697244852221427
235,1.46288156509399,0.000746414513814712
236,1.42230701446533,0.000689088924462467
237,1.38844871520996,0.000835758296974436
238,1.36215400695801,0.000660978177326043
239,1.34288311004639,0.000358632266738397
240,1.33037853240967,0.000349164639938321
241,1.32429075241089,0.000584358830470505
242,1.32285594940186,0.000699391219909375
243,1.32768487930298,0.000728577218762957
244,1.33774662017822,0.000526732204961917
245,1.35230541229248,0.000543577628965716
246,1.37267923355103,0.000811553869583458
247,1.39882040023804,0.000949376914304633
248,1.42808198928833,0.00144970542005666
249,1.46069431304932,0.00116072155123575
250,1.49792385101318,0.00117276972152436
251,1.5365834236145,0.000937903660060444
252,1.57744312286377,0.00105996427814891
253,1.61745691299438,0.00178970700527944
254,1.66019678115845,0.00232540140596438
255,1.70575904846191,0.00347692862736586
256,1.74266624450684,0.00301892741138092
257,1.78666353225708,0.00279548345078244
258,1.81321716308594,0.00435086918346601
259,1.83611440658569,0.00440849628411727
260,1.85765409469604,0.00244054779218791
261,1.87575483322144,0.0025120527333141
262,1.87617349624634,0.0042251143310246
263,1.88190603256226,0.00504952962639319
264,1.88038730621338,0.0032438477321374
265,1.85919952392578,0.00463736666336036
266,1.83010339736938,0.00397514152244934
267,1.79536247253418,0.00495241153404063
268,1.74692106246948,0.0038255460966387
269,1.67782115936279,0.0037117455255293
270,1.62580060958862,0.00217505996432351
271,1.57510900497437,0.00257249788815733
272,1.52256202697754,0.00272769793939928
273,1.46210479736328,0.0015052159291596
274,1.39679098129272,0.000942114386600166
275,1.31866645812988,0.000911672742920068
276,1.23481512069702,0.00110657786108191
277,1.15466070175171,0.00122206135527511
278,1.08440160751343,0.000757580052936182
279,1.01936054229736,0.000830746129464668
280,0.963672161102295,0.000317446078817239
281,0.913522243499756,0.000244416141020296
282,0.871016502380371,0.000316424481873287
283,0.833372592926025,0.000352905888987387
284,0.800929069519043,0.000320258546347067
285,0.772608757019043,0.000321460398829218
286,0.748447895050049,0.000247308915538494
287,0.7270827293396,0.000266892534633054
288,0.708368301391602,0.000370074789970588
289,0.692556858062744,0.000301626547252972
290,0.677642822265625,0.000298455877964634
291,0.665084362030029,0.000223615783663577
292,0.65399694442749,0.000267137777710138
293,0.644859790802002,0.000285204432202172
294,0.63602876663208,0.000244936539756218
295,0.627373695373535,0.000296860907872676
296,0.620607376098633,0.000332934792824777
297,0.613533973693848,0.000262210147544343
298,0.606518268585205,0.000377182713323568
299,0.600380897521973,0.000392274428917264
300,0.59477710723877,0.000257470871794899
301,0.58882999420166,0.000262217084596014
302,0.583245754241943,0.000349414608690017
303,0.577373027801514,0.000240227512614388
304,0.571567535400391,0.000179275552631283
305,0.566772937774658,0.000187808475645157
306,0.560657978057861,0.000315866378053268
307,0.554146289825439,0.000231053067507591
308,0.549123764038086,0.000257407280420662
309,0.542523860931397,0.00029811438120031
310,0.536040782928467,0.000393404237917305
311,0.529794216156006,0.000343418108096092
312,0.523242950439453,0.000266059751988892
313,0.517613887786865,0.000373850063275171
314,0.509757518768311,0.000249301484031593
315,0.504765033721924,0.000191633966373885
316,0.498224258422852,0.000229615783128636
317,0.491995811462402,0.000192594994527654
318,0.486238479614258,0.000289137948023029
319,0.481028079986572,0.000299538764301556
320,0.475977420806885,0.000432190217232317
321,0.470935344696045,0.000304136892121153
322,0.466229438781738,0.000204202137811741
323,0.461609840393066,0.000306424922307304
324,0.458313465118408,0.000355156305307232
325,0.453930377960205,0.000220667954929851
326,0.450640201568604,0.00022282126417778
327,0.447337627410889,0.000228420428270567
328,0.444678783416748,0.000320542408190697
329,0.441441059112549,0.00042331969016303
330,0.438096523284912,0.000297534159873736
331,0.4357008934021,0.000280393223883993
332,0.432444572448731,0.00040084282704573
333,0.430219173431397,0.000324568871454049
334,0.426674365997314,0.000300871777767313
335,0.424337387084961,0.000298955222991374
336,0.421107292175293,0.0002321878720827
337,0.417835712432861,0.000191558015331467
338,0.414422512054443,0.000242968068072077
339,0.410720825195313,0.000229647468475063
340,0.406715393066406,0.000185268265077725
341,0.402356624603272,0.000187595277100469
342,0.397491455078125,0.000176122759172878
343,0.392730712890625,0.000214048370927024
344,0.387572765350342,0.000295479023606404
345,0.381953716278076,0.000249461951956828
346,0.376125812530518,0.000182149297886861
347,0.370233535766602,0.000217328964596235
348,0.363725662231445,0.000248614681651121
349,0.35699987411499,0.000213124340224066
350,0.350766181945801,0.000207296419818016
351,0.34304141998291,0.000191444032270649
352,0.335896015167236,0.000197753516243915
353,0.328295230865479,0.000165497531534134
354,0.320818424224854,0.000161111696622559
355,0.312933444976807,0.000185425288744076
356,0.304786205291748,0.000226308341972268
357,0.296009063720703,0.000220779208819169
358,0.286715507507324,0.00029279510000872
359,0.278090476989746,0.000324512823365863
360,0.269097328186035,0.000367806851377883
361,0.260852336883545,0.000339765129915703
362,0.253060817718506,0.000435869853584695
363,0.246427536010742,0.000288022274725606
364,0.24058723449707,0.000250502487898873
365,0.232388496398926,0.000250502487898873
366,0.225606441497803,0.000191586500500823
367,0.219277858734131,0.000209942687982505
368,0.212671279907227,0.000216817808644122
369,0.205097675323486,0.000177813592878706
370,0.197989463806152,0.000150758988446147
371,0.191833019256592,0.000190396007897396
372,0.185344219207764,0.000166440076668156
373,0.178722381591797,0.000216717111459972
374,0.172502040863037,0.000177024149325136
375,0.16613245010376,0.000157630565730243
376,0.160234451293945,0.00023037502865384
377,0.154141426086426,0.000144213090062732
378,0.148629665374756,0.000212410482711074
379,0.142968654632568,0.000221124974068322
380,0.137570381164551,0.000177101197865348
381,0.132626056671143,0.000165774822903753
382,0.127726554870605,0.000172414716098853
383,0.123054504394531,0.000187973054355879
384,0.11838436126709,0.000220069518265044
385,0.113953590393066,0.000237773021286286
386,0.109473705291748,0.000183145200869107
387,0.105587959289551,0.000178145749664887
388,0.101797580718994,0.000167072744312509
389,0.0974626541137695,0.000141047109529338
390,0.0940957069396973,0.000168714124131287
391,0.0908231735229492,0.000130792529777687
392,0.0879058837890625,0.000223082341505577
393,0.084627628326416,0.00020450477834595
394,0.0811953544616699,0.000141295145700826
395,0.0784592628479004,0.000153612629811154
396,0.0760021209716797,0.000177910749003823
397,0.0736737251281738,0.000197767313161308
398,0.0707526206970215,0.000229421614894942
399,0.0683665275573731,0.000232813758714685
400,0.0661110877990723,0.000206892384210345
401,0.0640401840209961,0.000163648956575976
402,0.0618877410888672,0.000157298453144754
403,0.0600037574768066,0.000154456969807794
404,0.0580143928527832,0.000145868531726269
405,0.0562229156494141,0.000132581311281664
406,0.0545253753662109,0.000162581193616072
407,0.0528607368469238,0.000207186705495982
408,0.0515666007995606,0.000178089582065391
409,0.0499343872070313,0.00018375995017257
410,0.0485529899597168,0.000158720174345949
411,0.047050952911377,0.000147745667744445
412,0.0457038879394531,0.000212179140675421
413,0.0446410179138184,0.000228921568918606
414,0.0430479049682617,0.00014736968475109
415,0.0416831970214844,0.000109794797347822
416,0.0409111976623535,0.000156035807321465
417,0.0400781631469727,0.000196188215188962
418,0.0389351844787598,0.000196368929227026
419,0.0378279685974121,0.000192755486450652
420,0.0370774269104004,0.000152426873127711
421,0.0359516143798828,0.000157411161151621
422,0.0351934432983398,0.000126364545973257
423,0.0342574119567871,0.00011478808514796
424,0.0332627296447754,0.000164925007339466
425,0.0327463150024414,0.000149644841364656
426,0.0319309234619141,0.000134390274156305
427,0.0315589904785156,0.0000932993772255137
428,0.0304136276245117,0.000126992755902995
429,0.0303020477294922,0.000193113750808939
430,0.0294051170349121,0.0000973168450452516
431,0.0287032127380371,0.000123278775410148
432,0.0280237197875977,0.000149912021135095
433,0.0278129577636719,0.000138035915623952
434,0.0271801948547363,0.000130757756552448
435,0.0259280204772949,0.000148286389816342
436,0.0262513160705566,0.00016957713136109
437,0.0256485939025879,0.000149011421203491
438,0.0249357223510742,0.000129878397871942
439,0.0245585441589355,0.000110138029694091
440,0.0237956047058105,0.000137305920021866
441,0.0242633819580078,0.000165942071475497
442,0.0233759880065918,0.000161190708914159
443,0.0232577323913574,0.000124226833251448
444,0.0225729942321777,0.000127143064416869
445,0.0224170684814453,0.000100767324058664
446,0.0220751762390137,0.00013793045411252
447,0.0217628479003906,0.000144540661387811
448,0.0216250419616699,0.000124212189904518
449,0.0212497711181641,0.000133538244026428
450,0.0211300849914551,0.000117480134913968
451,0.0204768180847168,0.00011711376883222
452,0.0207915306091309,0.000148950373463945
453,0.0202755928039551,0.000110550147241303
454,0.019829273223877,0.0000903603269425607
455,0.0201387405395508,0.000107304253990442
456,0.0198688507080078,0.000109757514878633
457,0.0194411277770996,0.000128516239379295
458,0.0196609497070312,0.0000868524556734274
459,0.0193309783935547,0.000110864382917867
460,0.0187892913818359,0.000112944998503993
461,0.0193204879760742,0.000111667484563134
462,0.0184688568115234,0.000102452322341474
463,0.0188632011413574,0.0000958003707487117
464,0.0189881324768066,0.000113801361177692
465,0.0185604095458984,0.0000824404423367175
466,0.0185961723327637,0.000108986241357129
467,0.0179448127746582,0.00011051723439111
468,0.0179595947265625,0.000159069331104474
469,0.0179834365844727,0.000111622679894985
470,0.0178127288818359,0.0000995505349953917
471,0.0175962448120117,0.000120437021929411
472,0.0175118446350098,0.0000922726105117183
473,0.0177035331726074,0.000102886387991489
474,0.0171775817871094,0.000114736572464111
475,0.0172767639160156,0.000111748901572647
476,0.0167756080627441,0.000109354885973428
477,0.0169315338134766,0.0000883063280461887
478,0.0168404579162598,0.000120389815048672
479,0.0167455673217773,0.000131333799987374
480,0.0165896415710449,0.0000830148705293752
481,0.0162844657897949,0.000108490670949139
482,0.0162653923034668,0.000107794732291754
483,0.0160813331604004,0.000123330407412164
484,0.015906810760498,0.000123238192233196
485,0.0167417526245117,0.000127164522558466
486,0.0162467956542969,0.0000892513828771196
487,0.0148615837097168,0.0000858280393403568
488,0.0152463912963867,0.00010397893184355
489,0.0152783393859863,0.0000683292839970633
490,0.0152444839477539,0.0000820146050446939
491,0.015080451965332,0.0000994545606250989
492,0.0148682594299316,0.0000812094419155245
493,0.014899730682373,0.0000859365869603638
494,0.0146870613098145,0.0000831763116681139
495,0.0144205093383789,0.0000884889520500386
496,0.0145120620727539,0.0000757000577423543
497,0.0142879486083984,0.0000809008729720109
498,0.0142312049865723,0.000102525533481863
499,0.014164924621582,0.0000768773305064369
500,0.013984203338623,0.0000687092397223825
501,0.0139694213867187,0.00011957874268144
502,0.0138092041015625,0.0000876887846656528
503,0.013582706451416,0.0000860251766324887
504,0.0135178565979004,0.0000639335323867138
505,0.0135283470153809,0.000102227926080508
506,0.013329029083252,0.000101199629887238
507,0.013237476348877,0.00010635713588331
508,0.013251781463623,0.0000788239370696603
509,0.0129952430725098,0.0000687340543570614
510,0.013129711151123,0.0000867843627929688
511,0.0129756927490234,0.0000928841576428295
512,0.0127139091491699,0.0000777668632480383
513,0.0126514434814453,0.0000957742596668377
514,0.0127167701721191,0.000112545691661616
515,0.0126376152038574,0.0000894778288723362
516,0.0123944282531738,0.0000902948794453119
517,0.0124611854553223,0.0000672002125590242
518,0.0122842788696289,0.0000907545261640192
519,0.0122957229614258,0.000104000796827883
520,0.0120968818664551,0.0000919986831139385
521,0.0120730400085449,0.000103545054405559
522,0.0120272636413574,0.000090701898132768
523,0.0118584632873535,0.0000967262735617273
524,0.0118403434753418,0.0000994545606250989
525,0.0118589401245117,0.0000995551028956853
526,0.0117859840393066,0.000102305742888671
527,0.0117502212524414,0.0000893557719840444
528,0.0116543769836426,0.0000939526520544107
529,0.0116448402404785,0.0000908922170680988
530,0.0113911628723145,0.0000960137401478059
531,0.0114107131958008,0.0000903754234804561
532,0.0115575790405273,0.0000668984009805103
533,0.0111660957336426,0.0000851084201392262
534,0.0111656188964844,0.0000999107556737951
535,0.0111832618713379,0.0000886096369499711
536,0.0110816955566406,0.0000812500294942642
537,0.010930061340332,0.000056374777591648
538,0.0110025405883789,0.0000714874165798575
539,0.0109043121337891,0.0000868995656423013
540,0.0109338760375977,0.0000813031825483212
541,0.0107011795043945,0.0000703039753981592
542,0.0108261108398437,0.0000827803589658086
543,0.0105619430541992,0.000104367443658372
544,0.0105633735656738,0.0000824418213429876
545,0.0105452537536621,0.0000661309706073873
546,0.0103788375854492,0.0000731677059112208
547,0.010404109954834,0.0000910621652686486
548,0.0103373527526855,0.00008495332737594
549,0.010246753692627,0.0000992989768792771
550,0.0102286338806152,0.000115795856524481
551,0.0100746154785156,0.0000851044126797707
552,0.0101652145385742,0.0000840992600938746
553,0.0100598335266113,0.0000775692566243499
554,0.010014533996582,0.0000692498244674541
555,0.00993061065673828,0.0000787590073564085
556,0.0098724365234375,0.0000907545261640192
557,0.00978946685791016,0.0000806038175405788
558,0.0096898078918457,0.0000649777021700935
559,0.00971841812133789,0.0000830408864887794
560,0.00972175598144531,0.0000917834117647178
561,0.00954294204711914,0.0000810945671105321
562,0.00930356979370117,0.0000803481223605113
563,0.00949001312255859,0.0000724823850655545
564,0.00943565368652344,0.0000678634938394913
565,0.00924777984619141,0.0000679773139071618
566,0.00914239883422852,0.0000951263240921763
567,0.00931406021118164,0.0000700528802911863
568,0.00929021835327148,0.0000666071704491967
569,0.00910854339599609,0.0000751468735431363
570,0.00917625427246094,0.0000867345688045705
571,0.00906133651733398,0.000100539167071865
572,0.00895881652832031,0.000069905042969917
573,0.00894498825073242,0.0000657655080895842
574,0.00899362564086914,0.0000708548569526928
575,0.00864028930664063,0.0000493866117128878
576,0.00874042510986328,0.0000717223956182982
577,0.00857114791870117,0.000078995382919127
578,0.00888442993164063,0.0000725638999497296
579,0.008148193359375,0.0000694907340518386
580,0.00866413116455078,0.0000612545540524475
581,0.00836181640625,0.0000779727177138041
582,0.0086207389831543,0.0000690525404870814
583,0.00751829147338867,0.0000708259700083845
584,0.00832653045654297,0.0000767055969238524
585,0.00844001770019531,0.0000527589663922261
586,0.00792455673217773,0.0000639548672701953
587,0.00815439224243164,0.0000730510791340734
588,0.00796747207641602,0.0000578615907495108
589,0.00776767730712891,0.0000505683501893458
590,0.00797080993652344,0.0000542243735232981
591,0.00772380828857422,0.0000574969525636522
592,0.00786018371582031,0.0000605076104468432
593,0.00796794891357422,0.0000666941617587023
594,0.00751304626464844,0.000075497041637477
595,0.00771856307983398,0.0000709638792888093
596,0.00744104385375977,0.0000816339087240449
597,0.00743961334228516,0.0000828819249444107
598,0.0074458122253418,0.0000652448461692431
599,0.00767612457275391,0.0000800873523758785
600,0.00722646713256836,0.0000690969784936866
601,0.00730276107788086,0.0000566915064395901
602,0.00720739364624023,0.0000485016293142373
603,0.00729036331176758,0.0000697259200608152
604,0.00712823867797852,0.0000568337086010279
605,0.00702762603759766,0.000059495826570443
606,0.00705528259277344,0.0000652483310054677
607,0.00703763961791992,0.0000784407995316806
608,0.00708532333374023,0.0000589043486277857
609,0.00696325302124023,0.0000685585050796945
610,0.00706100463867188,0.0000645810756232443
611,0.00673437118530273,0.0000723096469393439
612,0.00686979293823242,0.0000656357298170967
613,0.00662994384765625,0.0000712931352996767
614,0.00671768188476563,0.0000609176965824299
615,0.00665807723999023,0.0000883809665379192
616,0.00650453567504883,0.0000724070591059328
617,0.00651168823242188,0.0000704735637860504
618,0.00644254684448242,0.0000623399619880837
619,0.00628900527954102,0.0000683109796527722
620,0.00641489028930664,0.0000639104115591679
621,0.00629806518554688,0.0000625402427639554
622,0.00637197494506836,0.0000648954175312829
623,0.00622987747192383,0.0000894854519000701
624,0.0062413215637207,0.0000779362583512354
625,0.00618457794189453,0.0000784538424441295
626,0.00608539581298828,0.000062765247555709
627,0.00614452362060547,0.0000883809665379192
628,0.00620794296264648,0.0000912093637578784
629,0.00627851486206055,0.0000571826969156678
630,0.00621700286865234,0.0000461769458529538
631,0.00606107711791992,0.0000585685321189999
632,0.0060420036315918,0.0000666276492107718
633,0.00602912902832031,0.00005104385317454
634,0.00598859786987305,0.0000847805203340452
635,0.00583887100219727,0.0000831667433953207
636,0.005828857421875,0.0000610686746591073
637,0.00574159622192383,0.0000465960430380888
638,0.00571537017822266,0.0000672627786667294
639,0.00576925277709961,0.0000759504453311157
640,0.00570821762084961,0.0000700528802911863
641,0.00574827194213867,0.0000900376644757792
642,0.00560903549194336,0.0000817563693971589
643,0.00564241409301758,0.0000840979082656741
644,0.00565576553344727,0.0000833156104076927
645,0.00554895401000977,0.0000947455154954513
646,0.005615234375,0.0000881903846358048
647,0.00552940368652344,0.0000954675149276785
648,0.00544071197509766,0.0000862297740594545
649,0.00535488128662109,0.0000771710522619015
650,0.00534772872924805,0.0000752255012241937
651,0.00530290603637695,0.000087823515178939
652,0.0054020881652832,0.000085659651413186
653,0.00538110733032227,0.0000614713194277711
654,0.00543785095214844,0.000061369516537461
655,0.00522947311401367,0.0000732779415599767
656,0.00844717025756836,0.0000595998762130585
657,0.00272512435913086,0.0000623509029824619
658,0.00449705123901367,0.0000785219202324684
659,0.00510311126708984,0.000060650237603167
660,0.00518655776977539,0.0000534078904136397
661,0.00516128540039063,0.0000662168706391905
662,0.00510692596435547,0.0000595922457196414
663,0.00507736206054688,0.0000652640104657848
664,0.00505256652832031,0.0000562667846679688
665,0.00511550903320313,0.0000855334752074382
666,0.00504159927368164,0.00008392740369841
667,0.00495338439941406,0.0000851831914430298
668,0.00502586364746094,0.0000519807182725446
669,0.00502252578735352,0.0000715208051999304
670,0.00505495071411133,0.0000607045727924055
671,0.00491762161254883,0.0000495773076269914
672,0.00496768951416016,0.0000619796599427055
673,0.0048980712890625,0.0000804923156689811
674,0.00493669509887695,0.0000814624336211862
675,0.0048375129699707,0.0000746154931425303
676,0.00492095947265625,0.0000670782950241441
677,0.00485515594482422,0.0000499531020173097
678,0.00482082366943359,0.0000557797577510443
679,0.00477933883666992,0.0000648708870380492
680,0.00479793548583984,0.0000613528418002191
681,0.00478649139404297,0.000062192070177514
682,0.00478553771972656,0.000070896561759708
683,0.00477218627929688,0.000072559199657163
684,0.00494813919067383,0.0000684821833011485
685,0.00481319427490234,0.0000651000609568563
686,0.0047602653503418,0.000081999355669464
687,0.00479698181152344,0.0000620749682056822
688,0.00480175018310547,0.0000509279050794449
689,0.00486469268798828,0.000059575073536095
690,0.0048069953918457,0.0000677629056016348
691,0.0048069953918457,0.0000576519590961935
692,0.00486135482788086,0.0000578409566005933
693,0.00482654571533203,0.0000571319770166001
694,0.00474309921264648,0.0000601996289527764
695,0.0047764778137207,0.000064181998083614
696,0.00472307205200195,0.0000646479352208719
697,0.00471401214599609,0.0000753357439250355
698,0.00463533401489258,0.0000821448024291787
699,0.00458145141601563,0.0000855095471564635
700,0.00456333160400391,0.0000745697700589165
701,0.00450658798217773,0.0000580890611941292
702,0.00452804565429688,0.0000680491901059584
703,0.00439786911010742,0.0000513558268193958
704,0.00443077087402344,0.0000628720235683614
705,0.00434589385986328,0.0000673860495375474
706,0.00419521331787109,0.0000721333431142833
707,0.00428676605224609,0.0000754654122683143
708,0.00422811508178711,0.0000659053815859681
709,0.00406503677368164,0.0000653162481496095
710,0.00413990020751953,0.0000607364018558146
711,0.00411319732666016,0.0000686132053620301
712,0.00411128997802734,0.0000757420966511239
713,0.00414419174194336,0.0000676504053152779
714,0.00409984588623047,0.0000679321434727025
715,0.00411176681518555,0.0000755467181769041
716,0.00420188903808594,0.0000649374482465255
717,0.0041508674621582,0.0000597475246722301
718,0.00407743453979492,0.0000660621701615788
719,0.00424671173095703,0.0000748543217452912
720,0.00420522689819336,0.0000581751104178994
721,0.0042119026184082,0.0000667077971611977
722,0.00430488586425781,0.0000724196188734351
723,0.00428295135498047,0.0000801214139839579
724,0.00428628921508789,0.0000544106509895682
725,0.00434780120849609,0.0000626002020465119
726,0.00433492660522461,0.0000641979379815584
727,0.00425577163696289,0.0000761880736099179
728,0.00433683395385742,0.0000719234210115799
729,0.00436878204345703,0.0000693695644146665
730,0.00436210632324219,0.0000744629736806063
731,0.00432252883911133,0.0000597950754355643
732,0.00422811508178711,0.0000548829004830668
733,0.00425338745117188,0.0000803268956310901
734,0.00424575805664063,0.0000752662947385357
735,0.00421524047851563,0.0000672458746483009
736,0.00418853759765625,0.0000781998401599756
737,0.00416183471679688,0.0000672154367021224
738,0.00409030914306641,0.0000669951964938487
739,0.00404024124145508,0.0000622943538275311
740,0.00405263900756836,0.000058913033097976
741,0.00391721725463867,0.0000676335981784715
742,0.00393915176391602,0.0000757210801141398
743,0.00400733947753906,0.00006262380660775
744,0.00396251678466797,0.0000613806305123559
745,0.00388908386230469,0.0000793801402591246
746,0.00387287139892578,0.0000797359562101293
747,0.00393581390380859,0.0000823811232299584
748,0.00389289855957031,0.0000634695155789592
749,0.00391244888305664,0.000085702111046594
750,0.00388431549072266,0.0000596017836837735
751,0.00395774841308594,0.000056591149649198
752,0.00383520126342773,0.0000526489551399498
753,0.00389337539672852,0.0000590460350269923
754,0.00387954711914062,0.0000669799222914629
755,0.00390625,0.0000648884097652098
756,0.00393009185791016,0.0000487984067661739
757,0.00391721725463867,0.0000702683907310053
758,0.00395822525024414,0.000063635879499257
759,0.00395870208740234,0.0000478443777002558
760,0.00397539138793945,0.0000590777954738801
761,0.00400400161743164,0.0000651192678630241
762,0.00398635864257812,0.0000608289857496033
763,0.00397777557373047,0.0000627580019282614
764,0.00395965576171875,0.0000745773925195625
765,0.00393295288085937,0.0000595731652101489
766,0.0039820671081543,0.0000580499057441648
767,0.00387763977050781,0.00006644482414817
768,0.00401639938354492,0.0000420989424648783
769,0.0039825439453125,0.0000414155787611966
770,0.00392770767211914,0.000056220294043489
771,0.00392055511474609,0.0000458656870132868
772,0.00387430191040039,0.0000639157478770964
773,0.00382471084594727,0.0000728203876581762
774,0.00375223159790039,0.0000680692350345013
775,0.00380325317382812,0.0000680658946230144
776,0.00382137298583984,0.0000689586328766729
777,0.00381708145141602,0.0000812626215175082
778,0.00364398956298828,0.000082990216308014
779,0.00371503829956055,0.0000556471210923025
780,0.00367307662963867,0.0000599109409085424
781,0.00362157821655273,0.0000602770076127301
782,0.00356864929199219,0.0000639299758805844
783,0.00360870361328125,0.0000595760276761455
784,0.00356149673461914,0.0000589448652084983
785,0.00348520278930664,0.0000597665495173778
786,0.00359010696411133,0.0000683376025327824
787,0.00353193283081055,0.0000692908545961102
788,0.00362682342529297,0.0000744645004215707
789,0.00349998474121094,0.0000672931951992726
790,0.00354337692260742,0.0000622614952649843
791,0.00354385375976562,0.0000679053616291729
792,0.0034937858581543,0.0000607167446986319
793,0.00353050231933594,0.0000510449667816693
794,0.00354385375976562,0.0000605170041423412
795,0.00356483459472656,0.0000668439982057847
796,0.00348281860351562,0.0000575295682214953
797,0.00350475311279297,0.000051449823415733
798,0.00353860855102539,0.0000677159132897405
799,0.00350046157836914,0.0000538551632060833
800,0.0036158561706543,0.0000630201236825741
801,0.00350141525268555,0.0000595225722794004
802,0.00360679626464844,0.0000474506883098297
803,0.00355100631713867,0.0000453785157497646
804,0.00358915328979492,0.0000735829418637886
805,0.00349712371826172,0.0000741615927235678
806,0.00360202789306641,0.0000641695976477719
807,0.00357913970947266,0.0000621792728908655
808,0.00353050231933594,0.0000672103623709223
809,0.00352668762207031,0.0000776556798959703
810,0.00342702865600586,0.0000834601254923776
811,0.0034642219543457,0.0000678115418801543
812,0.00345945358276367,0.0000616430763671582
813,0.0033574104309082,0.0000719881991072297
814,0.00340509414672852,0.0000565529673738214
815,0.00336074829101562,0.0000768669781510099
816,0.00334692001342773,0.0000670782950241441
817,0.00336503982543945,0.0000775003420025255
818,0.00324392318725586,0.0000747448899879828
819,0.00332117080688477,0.0000772535062831064
820,0.0032811164855957,0.0000680792552855482
821,0.00330543518066406,0.0000670613445033105
822,0.00322866439819336,0.0000663506526262693
823,0.00322484970092773,0.000061412109185216
824,0.00321102142333984,0.0000543531614998973
825,0.00319337844848633,0.0000523512043505686
826,0.00318479537963867,0.0000539395360655948
827,0.00323390960693359,0.0000646918841139144
828,0.00317907333374023,0.000079517510904208
829,0.00314521789550781,0.0000770235933962108
830,0.00317955017089844,0.0000676487247895031
831,0.0031890869140625,0.0000691857688793795
832,0.00318241119384766,0.0000736169243733358
833,0.00316810607910156,0.0000893023196367033
834,0.00325536727905273,0.000100278752336437
835,0.00321578979492187,0.0000740603481811765
836,0.00331258773803711,0.0000566714492988811
837,0.00327968597412109,0.0000971437956104038
838,0.0033564567565918,0.0000966133744586927
839,0.00338363647460937,0.0000635804732264964
840,0.00328826904296875,0.0000617075922609836
841,0.00340414047241211,0.0000790299151635009
842,0.00340843200683594,0.0000703557027851983
843,0.00337409973144531,0.0000676806476437641
844,0.00336933135986328,0.0000807222075444679
845,0.00342750549316406,0.0000766700178116184
846,0.00345897674560547,0.0000660484014723585
847,0.00344705581665039,0.0000780470420011174
848,0.00345659255981445,0.0000687390162090338
849,0.0034942626953125,0.0000533184120549996
850,0.00347805023193359,0.0000654014799713132
851,0.00343418121337891,0.0000832118413344684
852,0.0034031867980957,0.0000658605162933797
853,0.00336551666259766,0.0000625347890693504
854,0.00342559814453125,0.0000550266774926264
855,0.00344991683959961,0.0000767085611049732
856,0.00335693359375,0.0000767885507433845
857,0.00345659255981445,0.000079616099653314
858,0.00343132019042969,0.0000767441223482687
859,0.00334262847900391,0.0000960161082554448
860,0.00331974029541016,0.0000766759488101429
861,0.00332975387573242,0.0000659312515209875
862,0.00325155258178711,0.0000742412639063977
863,0.00325870513916016,0.0000644012671751108
864,0.00322437286376953,0.0000723473704339225
865,0.00324630737304687,0.0000618529664851074
866,0.00326442718505859,0.000072607754674186
867,0.00315475463867187,0.0000581604519374546
868,0.00302982330322266,0.0000688167051821841
869,0.00312471389770508,0.0000743774261690591
870,0.00305461883544922,0.0000747038117506643
871,0.00296592712402344,0.0000765676357714426
872,0.00305795669555664,0.000076197026204721
873,0.00296497344970703,0.0000613565476890086
874,0.00302886962890625,0.0000799424286326286
875,0.00301694869995117,0.000073384913319244
876,0.00299787521362305,0.0000591297303164033
877,0.00297927856445312,0.0000641625106084165
878,0.00304698944091797,0.0000494969832707088
879,0.00292205810546875,0.000061801480565561
880,0.00302982330322266,0.0000796260945904954
881,0.00291347503662109,0.0000733399731816497
882,0.00289297103881836,0.0000631570771038418
883,0.00302600860595703,0.0000619888305664063
884,0.00310134887695312,0.0000809626808434166
885,0.00307035446166992,0.000101663650293247
886,0.00312948226928711,0.0000871112452226601
887,0.00311374664306641,0.0000678634938394913
888,0.00309848785400391,0.0000770973580833803
889,0.00312089920043945,0.0000693039791069953
890,0.00319910049438477,0.0000714810550744763
891,0.00323390960693359,0.0000810468883417466
892,0.00319719314575195,0.0000892437398556646
893,0.00314617156982422,0.000091865125797285
894,0.0031743049621582,0.0000798741382379907
895,0.00326299667358398,0.0000640063972125924
896,0.00330400466918945,0.0000675797872514612
897,0.00330018997192383,0.0000784306535446518
898,0.00337743759155273,0.0000833769917483317
899,0.00325632095336914,0.0000873666657520436
900,0.00340890884399414,0.0000774621926809905
901,0.00335502624511719,0.0000758875513613806
902,0.00327110290527344,0.000076197026204721
903,0.00330305099487305,0.0000796375158398231
904,0.00333738327026367,0.0000718791487644126
905,0.00332832336425781,0.0000852605640234427
906,0.0033721923828125,0.0000676319172350711
907,0.00335693359375,0.0000625711380546735
908,0.00323915481567383,0.0000868576913762186
909,0.00328397750854492,0.0000772579209794069
910,0.00336933135986328,0.0000805276177695639
911,0.00320959091186523,0.000105545941914721
912,0.00321865081787109,0.000110506947115125
913,0.00318145751953125,0.000110948438660243
914,0.00317811965942383,0.000103175485154669
915,0.00320196151733398,0.0000845334245835924
916,0.00307369232177734,0.000108110667431498
917,0.00321054458618164,0.0000858214161420832
918,0.00310134887695312,0.000111048812066312
919,0.00299644470214844,0.0000833046934344211
920,0.00288867950439453,0.0000981682528111097
921,0.00294733047485352,0.000103023313719226
922,0.0028076171875,0.0000891188110514952
923,0.0029149055480957,0.0000853018895543019
924,0.00284624099731445,0.0000877691296756251
925,0.00290107727050781,0.0000964036908529267
926,0.0027623176574707,0.00011060772116312
927,0.00292682647705078,0.0000979688602965744
928,0.00265741348266602,0.0000777186058042053
929,0.00270986557006836,0.000108413098982602
930,0.00263738632202148,0.0000907169378285684
931,0.00276851654052734,0.000098616564765043
932,0.00259780883789062,0.0000985935057321173
933,0.00273990631103516,0.0000935622066037587
934,0.0025029182434082,0.000103327432485823
935,0.0026850700378418,0.000112955063736964
936,0.00253152847290039,0.000106290842434442
937,0.00255584716796875,0.000089961873055903
938,0.00269985198974609,0.0000696394509134635
939,0.00270223617553711,0.000102494480596899
940,0.0025029182434082,0.000113421108305408
941,0.00269174575805664,0.0000964555651675225
942,0.00263643264770508,0.000081181438658859
943,0.00266838073730469,0.0000898151616230522
944,0.00275993347167969,0.000116596192282385
945,0.00263261795043945,0.000146080368933331
946,0.00268459320068359,0.0000854935914019182
947,0.00271320343017578,0.000144971043896941
948,0.00278568267822266,0.000110511062140434
949,0.00253438949584961,0.000140788946762305
950,0.00283098220825195,0.000131700316846663
951,0.00275802612304687,0.000110989418361227
952,0.00290822982788086,0.0000878053904206861
953,0.00261926651000977,0.0000687770451816665
954,0.00295448303222656,0.0000565780901915887
955,0.00271940231323242,0.000085077691459394
956,0.00263738632202148,0.000122727917590341
957,0.00283908843994141,0.000118980187565391
958,0.00273752212524414,0.000114942484683882
959,0.00300884246826172,0.000137979899232507
960,0.00291585922241211,0.000128151261522912
961,0.00296592712402344,0.000112753588363
962,0.00305795669555664,0.000101683777059596
963,0.00273990631103516,0.000141975811585613
964,0.00281810760498047,0.000117049682560473
965,0.00306510925292969,0.00014519671892676
966,0.00275182723999023,0.000132189718606113
967,0.00300979614257812,0.000150072706712457
968,0.0028076171875,0.000119138696749709
969,0.00281143188476562,0.000123337781648017
970,0.00275611877441406,0.000171820249154601
971,0.00281858444213867,0.000138325520190234
972,0.00284910202026367,0.000147221493804236
973,0.00292491912841797,0.000134606661977483
974,0.0028376579284668,0.0000979920663182412
975,0.00273561477661133,0.000138364964757413
976,0.00287675857543945,0.00013870634780465
977,0.00301504135131836,0.000174795780874024
978,0.00267171859741211,0.000182782325116316
979,0.00260305404663086,0.000170824873792971
980,0.00261878967285156,0.00016641275243888
981,0.00258207321166992,0.000142369234470483
982,0.00264835357666016,0.000172833573084138
983,0.00257396697998047,0.000167930647047742
984,0.00272035598754883,0.000168959224960488
985,0.00266933441162109,0.000183789643951575
986,0.00240230560302734,0.000172161327934231
987,0.00254964828491211,0.00015729267106998
988,0.00238275527954102,0.000183898480120757
989,0.00227117538452148,0.000180438608213617
990,0.00234603881835937,0.000191781035922995
991,0.00244951248168945,0.000149361961488821
992,0.00261497497558594,0.00019696087684975
993,0.00258445739746094,0.000176215686327669
994,0.00221967697143555,0.000235439765298168
995,0.00255489349365234,0.000274379907125059
996,0.00218343734741211,0.000206764861501025
997,0.00204658508300781,0.000302301220034164
998,0.00194787979125977,0.000244025113674557
999,0.00244235992431641,0.000216939422046667
1000,0.00238847732543945,0.000224253428156254
1001,0.00215625762939453,0.00022195015437442
1002,0.00235080718994141,0.000229928484587397
1003,0.00208711624145508,0.000218705613452517
1004,0.00264358520507812,0.000186988273201713
1005,0.00190973281860352,0.000247823239873347
1006,0.00251293182373047,0.000307089053268643
1007,0.00207281112670898,0.000236257293722772
1008,0.00227928161621094,0.000208399114679168
1009,0.00206136703491211,0.000253325770811218
1010,0.00204753875732422,0.000228360695414636
1011,0.00248861312866211,0.000224533094016621
1012,0.00179195404052734,0.000239681712574792
1013,0.00249385833740234,0.000312077443344841
1014,0.00208473205566406,0.000306205205369169
1015,0.00230169296264648,0.000266285269831105
1016,0.0013580322265625,0.000351024703113892
1017,0.00239276885986328,0.000308471998207764
1018,0.00169610977172852,0.000344787229286898
1019,0.00256156921386719,0.000390564273047799
1020,0.00185823440551758,0.000293991667397028
1021,0.00193643569946289,0.000239385551296039
1022,0.00160741806030273,0.000308990478515625
1023,0.00184726715087891,0.000317067668416653
1024,0.00172662734985352,0.000348319671015733
1025,0.00135374069213867,0.000488504716282236
1026,0.00189685821533203,0.000375752521619256
1027,0.00144481658935547,0.000240265369354244
1028,0.00233650207519531,0.000300302941459115
1029,0.0021367073059082,0.000388547094361407
1030,0.00132179260253906,0.000340524502051235
1031,0.00197362899780273,0.000606116863199952
1032,0.00137567520141602,0.000437785334970469
1033,0.00119304656982422,0.000463403294145617
1034,0.00180339813232422,0.000542653256289163
1035,0.00218629837036133,0.000435209982206777
1036,0.00101518630981445,0.000343815132562299
1037,0.00153255462646484,0.000398558285113799
1038,0.000823974609375,0.000408733730904688
1039,0.00165033340454102,0.00042720351688225
1040,0.000660896301269531,0.000530133133095309
1041,0.00174379348754883,0.000749391428088908
1042,0.000831127166748047,0.000666230079098539
1043,0.00199270248413086,0.000591413420907089
1044,0.0000319480895996094,0.000452664907332823
1045,0.0021977424621582,0.000616318621498702
1046,0.00203371047973633,0.000611316395150408
1047,-0.000666618347167969,0.000569476937881934
1048,0.000329494476318359,0.00084424688799273
1049,0.000949382781982422,0.00064278497888409
1050,0.00152349472045898,0.000447255969984465
1051,0.00000429153442382813,0.000513526832569111
1052,0.00054168701171875,0.000724270281146595
1053,0.00138235092163086,0.000963435760575975
1054,-0.000571727752685547,0.000782561691159611
1055,0.00105857849121094,0.000757637676002295
1056,-0.000286102294921875,0.00086831090734376
1057,0.00286006927490234,0.000923345877447643
1058,0.000296115875244141,0.000883709840754043
1059,-0.0021824836730957,0.000993492479140968
1060,-0.000406265258789063,0.00109624603407239
1061,-0.000438690185546875,0.000862340983602196
1062,-0.00190639495849609,0.000809111588282956
1063,0.00223731994628906,0.000840775200611677
1064,-0.00177431106567383,0.00125609587879288
1065,-0.00124216079711914,0.00150726407953372
1066,-0.000911235809326172,0.00107148863916386
1067,-0.000481605529785156,0.00134316352033251
1068,-0.00175189971923828,0.0011349605878686
1069,-0.000129222869873047,0.000924212270030363
1070,-0.000767230987548828,0.00139815810412052
1071,-0.000941276550292969,0.00191636054602272
1072,0.00148630142211914,0.00153048772960771
1073,-0.00302553176879883,0.00109606017790679
1074,0.00199365615844727,0.00102415919156188
1075,0.000170230865478516,0.00125628122568466
1076,-0.000490665435791016,0.00117440645661739
1077,-0.00217056274414062,0.000950541117747832
1078,-0.000382900238037109,0.00138683002992537
1079,0.00195026397705078,0.00147939448773692
1080,-0.00155401229858398,0.00191383783812549
1081,-0.00224161148071289,0.00239577566298583
1082,0.000728607177734375,0.00249419365081939
1083,-0.00213861465454102,0.00147047549711428
1084,0.000557899475097656,0.00180621786583956
1085,-0.000310897827148437,0.00180325061188675
1086,0.00194883346557617,0.00158962604897361
1087,-0.00226736068725586,0.0018375915827278
1088,0.00127458572387695,0.00188648254384964
1089,-0.00150012969970703,0.00212754801197878
1090,0.000080108642578125,0.00265059704071658
1091,0.00114917755126953,0.00248076189366474
1092,-0.000744342803955078,0.00214047691083572
1093,-0.00307369232177734,0.00233524288579602
1094,0.00272512435913086,0.00278772689191012
1095,0.00386524200439453,0.00218579157464233
1096,-0.00183486938476562,0.00246087891645183
1097,-0.0000963211059570313,0.00252411919943264
1098,-0.00215911865234375,0.00228902180085439
1099,-0.000308990478515625,0.0032545247949742
1100,-0.00181102752685547,0.00194760376644918
