Wavelength (nm),Absorbance (AU),Std.Dev.
190,0.442600250244141,0.12290146728335
191,0.854208946228027,0.158666614650002
192,1.27944183349609,0.257175467709123
193,0.764567852020264,0.220621009336695
194,0.811105728149414,0.44438637248106
195,1.5416898727417,0.678687752526659
196,1.1409420967102,0.316635237355472
197,1.07425498962402,0.128190335618548
198,1.08461427688599,0.285624081132275
199,1.92462205886841,0.557664217861262
200,1.78459739685059,0.34180245531159
201,1.4681715965271,0.186985581765242
202,2.42859363555908,0.163646351865857
203,2.79734086990356,0.317591577974591
204,3.66322565078735,0.826169566338382
205,3.99999952316284,1.14006300367293
206,3.26081037521362,0.515032803870297
207,3.14048910140991,0.073343029537165
208,3.2297043800354,0.0763157195490744
209,3.12750911712646,0.0734372402754716
210,3.22941112518311,0.0566805994445503
211,3.04085254669189,0.0461742151380586
212,3.07503843307495,0.0539003673052614
213,3.06343936920166,0.0706119518548452
214,3.03895473480225,0.0686187184278223
215,3.1245608329773,0.0556512115099869
216,3.02590465545654,0.0454626292929857
217,3.0059323310852,0.0435543043179613
218,2.97894620895386,0.0455412254951982
219,2.87220525741577,0.0333714426266441
220,2.86795568466187,0.0262573213812252
221,2.69749927520752,0.023958145362006
222,2.63472700119019,0.0230515814679299
223,2.57359933853149,0.0140648627945289
224,2.46005010604858,0.0119395124925997
225,2.389817237854,0.0110401108683327
226,2.28933429718018,0.00676554815940302
227,2.16591024398804,0.00409663676624752
228,2.05752658843994,0.00479767000028363
229,1.9730281829834,0.00363223286588331
230,1.88554048538208,0.00244783508726228
231,1.79485082626343,0.00273643314015748
232,1.71554470062256,0.00200216013140525
233,1.64474725723267,0.00172518813983502
234,1.5808367729187,0.00131121305682985
235,1.52480554580688,0.00088696428399117
236,1.48196029663086,0.000672415465363927
237,1.44677257537842,0.0005309011641146
238,1.41598844528198,0.000712256181925664
239,1.39389371871948,0.000405265581100792
240,1.37831544876099,0.000324697745340983
241,1.36858749389648,0.000601804009793549
242,1.36448192596436,0.000708959203331046
243,1.36827611923218,0.000537412189606262
244,1.37597465515137,0.000565077583926361
245,1.38809728622437,0.000504997340960454
246,1.40795135498047,0.000579344392172982
247,1.43320608139038,0.0012219660901241
248,1.46411466598511,0.00150223533895829
249,1.49878978729248,0.00119250633699655
250,1.5360894203186,0.00135625229678201
251,1.57754468917847,0.00155298944693408
252,1.62116146087646,0.00147860736637886
253,1.67195701599121,0.00216185325821715
254,1.71494579315186,0.00177136731628462
255,1.76224279403687,0.00183502402813808
256,1.80187654495239,0.00187531076279903
257,1.84986925125122,0.00251622012011662
258,1.88771820068359,0.00368922052816453
259,1.90929841995239,0.0034206243825041
260,1.92846012115479,0.00431108725254158
261,1.93930721282959,0.00293389653803326
262,1.94580602645874,0.00397174291323557
263,1.95541334152222,0.00292372095985718
264,1.94480848312378,0.0046423846996104
265,1.92352867126465,0.00550400406132593
266,1.89347743988037,0.00521243450503288
267,1.84154987335205,0.00468313093022391
268,1.78938102722168,0.0036467548182215
269,1.71610927581787,0.00295776581301673
270,1.65081977844238,0.00156716752282034
271,1.59491491317749,0.0016400891518857
272,1.52631950378418,0.00249232597026183
273,1.46671009063721,0.00190548615121188
274,1.3940281867981,0.00134567467503033
275,1.30631685256958,0.00127864646393656
276,1.22127819061279,0.000909915253654515
277,1.1374683380127,0.00064431128938957
278,1.06634426116943,0.000555519996262939
279,1.00518751144409,0.000348935344606627
280,0.951369762420654,0.000477386158567101
281,0.903202533721924,0.000430554117497633
282,0.863254547119141,0.000342367751350058
283,0.826833724975586,0.000319616089868979
284,0.795213222503662,0.000458557711798527
285,0.766878604888916,0.000364378477058702
286,0.742541790008545,0.000251422989704652
287,0.720100402832031,0.000268408074239277
288,0.700877666473389,0.000282203816533449
289,0.683422088623047,0.00024145481849209
290,0.668081760406494,0.000212547455469278
291,0.654815196990967,0.000189443028195708
292,0.642919540405273,0.000230062934138416
293,0.632266998291016,0.000264647629866828
294,0.622866153717041,0.000179625260027916
295,0.613483428955078,0.000245114707839247
296,0.605225563049316,0.000284872591257556
297,0.598267078399658,0.00020684402278239
298,0.590939998626709,0.000188388699906824
299,0.584487438201904,0.000262126888604624
300,0.578648567199707,0.000286286612584258
301,0.573002815246582,0.000207204263691394
302,0.567335605621338,0.000290493642631469
303,0.562188625335693,0.000265683463531324
304,0.557238578796387,0.000272630785143004
305,0.553351402282715,0.000215989863726844
306,0.549040794372559,0.000347566863018164
307,0.543917179107666,0.000290912875255418
308,0.540514945983887,0.000255812358540329
309,0.536590099334717,0.000339947105865126
310,0.531825065612793,0.000259343309505974
311,0.528717517852783,0.000293979292708297
312,0.525271415710449,0.000266346741557483
313,0.521184921264648,0.000254457750537527
314,0.518042087554932,0.000169080297376213
315,0.514676094055176,0.000170651751677998
316,0.51170825958252,0.000244453349098122
317,0.507986545562744,0.000168587394043576
318,0.505587100982666,0.000209265787672917
319,0.50248908996582,0.0002128937739065
320,0.499396324157715,0.000279314259424903
321,0.496143817901611,0.000219821412754071
322,0.493356227874756,0.000228937460180221
323,0.490667819976807,0.000288262161812441
324,0.487692832946777,0.000237903037583233
325,0.484429836273193,0.000310253575735784
326,0.480990409851074,0.000309290563600761
327,0.478221893310547,0.000319285831399271
328,0.474274635314941,0.000246918785895383
329,0.470274925231934,0.000177895412090618
330,0.466235637664795,0.000191818971050638
331,0.462306022644043,0.000163340218796562
332,0.458002090454102,0.0001669556636354
333,0.453756332397461,0.000194736465730289
334,0.449072360992432,0.000197707519565637
335,0.443593978881836,0.000129074102542208
336,0.438961029052734,0.00010278689217573
337,0.43302583694458,0.000187837529425243
338,0.427013874053955,0.00026734197508832
339,0.421220779418945,0.000277399581339994
340,0.414938926696777,0.000234246951628755
341,0.408421516418457,0.000261223215822444
342,0.401725292205811,0.000208049686004995
343,0.393923282623291,0.000171393609485779
344,0.386742115020752,0.00016051503171518
345,0.378828048706055,0.000187532240236594
346,0.371530532836914,0.000166352623336228
347,0.363471031188965,0.000135827464179612
348,0.354802131652832,0.000142174258383518
349,0.346789836883545,0.000124256114768237
350,0.33824634552002,0.0000998788898436319
351,0.329469680786133,0.000144345467968052
352,0.320173263549805,0.000191291949206264
353,0.311717987060547,0.00020683962572824
354,0.303033828735352,0.000226469038109802
355,0.294208526611328,0.000168101161162215
356,0.285243034362793,0.00019720084801645
357,0.276589393615723,0.000220420523020679
358,0.267020702362061,0.000293490075156743
359,0.258256912231445,0.000219274592472378
360,0.25026798248291,0.000270507496616716
361,0.240964889526367,0.000296235252434052
362,0.232341766357422,0.000262230958148819
363,0.224390029907227,0.000251647167866132
364,0.217420101165771,0.000287067058260333
365,0.209822177886963,0.000287067058260333
366,0.202194690704346,0.000198125695780531
367,0.196763038635254,0.000161210455936212
368,0.190718173980713,0.000169815630932827
369,0.1839599609375,0.000162141462462407
370,0.177114963531494,0.000194362475629532
371,0.171083450317383,0.000161283780850424
372,0.165126800537109,0.000127196702983366
373,0.158567428588867,0.000121148548277974
374,0.152641296386719,0.00011443893113001
375,0.147216320037842,0.000149099896027582
376,0.141147136688232,0.000227070635778629
377,0.13572883605957,0.000163148006246128
378,0.13035249710083,0.000216704521021928
379,0.125265121459961,0.000162205956202567
380,0.120070457458496,0.000133705003115249
381,0.11509370803833,0.000133596122801494
382,0.111194133758545,0.000183908371124132
383,0.106486797332764,0.00015398222908901
384,0.102116584777832,0.000145462690188059
385,0.0979151725769043,0.000159269321362115
386,0.0939249992370606,0.000205144190364819
387,0.0901737213134766,0.00020510871976883
388,0.086512565612793,0.000220989202239384
389,0.0827174186706543,0.000174191165793643
390,0.0795178413391113,0.000169705801981964
391,0.0765266418457031,0.000156901888413077
392,0.0730953216552734,0.000198909121250198
393,0.0707559585571289,0.000242278327657314
394,0.0669660568237305,0.000214964198897581
395,0.064755916595459,0.000177526928677977
396,0.0623979568481445,0.00013473160265018
397,0.0600452423095703,0.000172277510438699
398,0.0575017929077148,0.000139484445944078
399,0.0547590255737305,0.000158013790688573
400,0.0527033805847168,0.000108584940547869
401,0.0508852005004883,0.000126522789432992
402,0.0490679740905762,0.000196549477110744
403,0.0470795631408691,0.000164045843381535
404,0.0453004837036133,0.000157503579278562
405,0.0436644554138184,0.000133057220265237
406,0.0417575836181641,0.000149845270854205
407,0.0403051376342773,0.000182338938019314
408,0.0387721061706543,0.000202354319111851
409,0.0377140045166016,0.000197923611008802
410,0.0363712310791016,0.0001795036999463
411,0.0349574089050293,0.000139595248773684
412,0.0336928367614746,0.000186296317246624
413,0.0324430465698242,0.00022406679032661
414,0.0315303802490234,0.000189668535698271
415,0.0299553871154785,0.000156452008324645
416,0.0296144485473633,0.00014168082990592
417,0.0286006927490234,0.000180373070251136
418,0.0275559425354004,0.00018012582821752
419,0.0265278816223145,0.000163069942326711
420,0.0259189605712891,0.000151346040794436
421,0.0251665115356445,0.000188682963211307
422,0.0244407653808594,0.00015361855039969
423,0.0238337516784668,0.000129338068834004
424,0.0225281715393066,0.000166552059140901
425,0.022364616394043,0.000137640018301111
426,0.0213747024536133,0.000124446276689138
427,0.0214748382568359,0.000111775349331839
428,0.0204873085021973,0.000144026925114844
429,0.0203361511230469,0.000206500771396442
430,0.0197739601135254,0.000119163504391155
431,0.0186333656311035,0.00013332012209996
432,0.0183377265930176,0.000125044123863859
433,0.0182480812072754,0.000117802907039692
434,0.0178594589233398,0.000108906934608503
435,0.0169715881347656,0.000120642628090042
436,0.0170536041259766,0.000143910054735836
437,0.0165672302246094,0.000166816693979189
438,0.016082763671875,0.000139676665365877
439,0.0156855583190918,0.000138516064875529
440,0.0151619911193848,0.000166636678855015
441,0.0158977508544922,0.000186012946953295
442,0.0149459838867187,0.000175336077033018
443,0.0146946907043457,0.000138719461144108
444,0.014472484588623,0.000127375335072875
445,0.013979434967041,0.000107853777104354
446,0.0139141082763672,0.000136831494659298
447,0.0135183334350586,0.000097461595848398
448,0.0137104988098145,0.000115683878692054
449,0.0131568908691406,0.000119312241920726
450,0.0132904052734375,0.000117406565830325
451,0.0128331184387207,0.0000825217642778243
452,0.0126762390136719,0.00012203864342446
453,0.0125632286071777,0.000106322925071156
454,0.0122532844543457,0.0000777288447352562
455,0.0123934745788574,0.0000983163754948416
456,0.0121221542358398,0.00010414499059481
457,0.012049674987793,0.000122334522182716
458,0.011876106262207,0.000100776349345208
459,0.0116348266601562,0.000135613024317543
460,0.0114102363586426,0.000118601201754536
461,0.0117521286010742,0.0000938364159333391
462,0.0112013816833496,0.000108245185772581
463,0.0113191604614258,0.000110222639354548
464,0.0113115310668945,0.000100233393752455
465,0.011408805847168,0.000115825306382075
466,0.0110306739807129,0.000125780206460874
467,0.0107903480529785,0.000125363744546165
468,0.0107808113098145,0.000141205001140073
469,0.0106797218322754,0.000116019487958874
470,0.0104160308837891,0.0000804852533907776
471,0.010530948638916,0.000115301946224536
472,0.0103564262390137,0.000114132545166323
473,0.0104475021362305,0.000116687810761204
474,0.0100717544555664,0.000145052578159835
475,0.0101337432861328,0.000124526642391211
476,0.0100579261779785,0.000125062306017397
477,0.009918212890625,0.000105537324512526
478,0.0100507736206055,0.00010613028377474
479,0.00969982147216797,0.000119216918701188
480,0.00991725921630859,0.0000824625036697331
481,0.00960493087768555,0.0000970548124837827
482,0.00954484939575195,0.0000989411250316718
483,0.00945568084716797,0.000131347649381063
484,0.00923395156860352,0.000113993006590671
485,0.0102248191833496,0.000124340260718072
486,0.0097966194152832,0.0000903024335004106
487,0.0086064338684082,0.0000858743874251825
488,0.00875949859619141,0.000112440588086978
489,0.00898265838623047,0.0000769172479684037
490,0.00898265838623047,0.0000979363626284808
491,0.00889158248901367,0.0000960942230683018
492,0.00867366790771484,0.000100126720198172
493,0.00885486602783203,0.000090812131394027
494,0.00864553451538086,0.000109850697326522
495,0.00838565826416016,0.000110195818934845
496,0.0085301399230957,0.0000938679107617514
497,0.00833797454833984,0.0000792869937546788
498,0.00817584991455078,0.00010109847406625
499,0.00831508636474609,0.0000729778980233524
500,0.00814247131347656,0.0000724855219484706
501,0.00833845138549805,0.0000795360949392262
502,0.00798320770263672,0.0000735010103912265
503,0.00819921493530273,0.0000995231231908348
504,0.0077509880065918,0.0000760581425662415
505,0.00806522369384766,0.000110952537311444
506,0.00766849517822266,0.000100142614950376
507,0.00765657424926758,0.000109861046053083
508,0.0077977180480957,0.0000885351912361971
509,0.00745916366577148,0.0000875772163296545
510,0.00774192810058594,0.0000832692033866145
511,0.00763034820556641,0.0000915651511673177
512,0.00745391845703125,0.0000823659417125775
513,0.00728082656860352,0.0000934041108664753
514,0.00745439529418945,0.000112648678760502
515,0.00728750228881836,0.0000923932750303869
516,0.00727653503417969,0.000110096733093579
517,0.00724983215332031,0.0000786550083283633
518,0.00716733932495117,0.000106147421602759
519,0.00725460052490234,0.0000842599727967849
520,0.00712728500366211,0.0000768373923071246
521,0.00710964202880859,0.0000801512060169595
522,0.00679779052734375,0.000080488078376419
523,0.00706148147583008,0.0000843301040366842
524,0.00687074661254883,0.000103389028576233
525,0.00689554214477539,0.000102702798422494
526,0.00687026977539063,0.0000968953755676809
527,0.00673151016235352,0.0000960800250988478
528,0.00680255889892578,0.0000981682528111097
529,0.00677204132080078,0.0000826387823115604
530,0.00675582885742188,0.0000969915380215629
531,0.0065922737121582,0.000100523335022512
532,0.00685548782348633,0.0000807841521127235
533,0.00661754608154297,0.0000767144891236146
534,0.00649356842041016,0.0000909297329470272
535,0.00661420822143555,0.0000914906251359512
536,0.00641775131225586,0.0000863101600539972
537,0.0064239501953125,0.000063970863763336
538,0.00632762908935547,0.0000642687341411184
539,0.00634622573852539,0.0000997034457297144
540,0.00629949569702148,0.0000943366612555697
541,0.00629949569702148,0.0000789363553874026
542,0.00616979598999023,0.0000621243975179914
543,0.00620698928833008,0.0000941170741572295
544,0.0061955451965332,0.0000981033788111354
545,0.00619029998779297,0.0000737187779115246
546,0.00607633590698242,0.0000748588779302355
547,0.00599002838134766,0.0000928694689169303
548,0.00610828399658203,0.0000845764496147957
549,0.00592660903930664,0.0000782971840956009
550,0.00598955154418945,0.000102837757619542
551,0.00591087341308594,0.0000769748699795926
552,0.00609159469604492,0.0000939599120375802
553,0.00592470169067383,0.000082050637756197
554,0.00575923919677734,0.0000665901000036335
555,0.00590753555297852,0.0000802305973541136
556,0.00576305389404297,0.000104572030422895
557,0.00572347640991211,0.0000956626138532666
558,0.00576257705688477,0.0000752632737549812
559,0.00576543807983398,0.000101813387447118
560,0.00570392608642578,0.0000958691749665466
561,0.00560140609741211,0.0000762447556233025
562,0.00546836853027344,0.0000783973074850534
563,0.00554752349853516,0.0000761910579250686
564,0.005615234375,0.0000668729051904992
565,0.00538396835327148,0.0000667367631413304
566,0.00550508499145508,0.000110181374466218
567,0.00544118881225586,0.0000721585557480886
568,0.00551605224609375,0.0000542338074039952
569,0.00546693801879883,0.0000864194176305788
570,0.00555419921875,0.0000891519724896405
571,0.00536298751831055,0.0000749969506676054
572,0.0053715705871582,0.0000690525404870814
573,0.00540637969970703,0.0000654727111331985
574,0.00546979904174805,0.0000794030518706012
575,0.0052032470703125,0.0000728640880104834
576,0.00524806976318359,0.0000728640880104834
577,0.00525379180908203,0.0000787243562790842
578,0.00541353225708008,0.0000664465351222822
579,0.00478935241699219,0.0000803608557068594
580,0.00530672073364258,0.0000747266357814289
581,0.00504970550537109,0.0000801512060169595
582,0.00543403625488281,0.0000699863109214803
583,0.00429677963256836,0.000070033403122981
584,0.00503683090209961,0.0000736431728449554
585,0.00524520874023438,0.0000588280632613697
586,0.00477409362792969,0.0000736524347779802
587,0.00491666793823242,0.0000771887283955012
588,0.00489473342895508,0.0000643323840722362
589,0.00465297698974609,0.0000929282098898604
590,0.00488615036010742,0.0000602109588704965
591,0.00476789474487305,0.0000721806095783779
592,0.0048069953918457,0.0000694809173587303
593,0.00501203536987305,0.0000710423357851741
594,0.00451040267944336,0.0000783639472357717
595,0.00480365753173828,0.0000843745801656375
596,0.00452899932861328,0.0000851751833714915
597,0.00454235076904297,0.0000880097246197779
598,0.00450754165649414,0.0000740081378481584
599,0.00479984283447266,0.0000851204413855687
600,0.00439834594726563,0.0000703637817543683
601,0.00456666946411133,0.0000693941429244011
602,0.00445127487182617,0.0000650686192448282
603,0.00441551208496094,0.0000694449109449422
604,0.00440883636474609,0.0000534100190236887
605,0.00428485870361328,0.0000690969784936866
606,0.00438594818115234,0.0000774460469263411
607,0.00433158874511719,0.0000816436566384296
608,0.00445795059204102,0.0000687572066027677
609,0.00414466857910156,0.00006979925317453
610,0.00448894500732422,0.0000711814230229839
611,0.00409078598022461,0.0000725435298157844
612,0.00417900085449219,0.0000738451275180362
613,0.00423383712768555,0.0000688266166114847
614,0.00415802001953125,0.000057551301724475
615,0.00407981872558594,0.0000813646848098433
616,0.00399017333984375,0.0000829915861791205
617,0.00397920608520508,0.000070533226345446
618,0.00395965576171875,0.0000575384601922156
619,0.00390195846557617,0.000059425083536406
620,0.00395536422729492,0.0000670850740332594
621,0.00380039215087891,0.0000683608890476473
622,0.00398588180541992,0.0000721459505325591
623,0.00384950637817383,0.000106658144226195
624,0.00397682189941406,0.000103724961193644
625,0.00380706787109375,0.0000756489790891504
626,0.00378036499023437,0.0000587226460726359
627,0.00394153594970703,0.0000913164945297677
628,0.00398540496826172,0.0000981589877218709
629,0.00390291213989258,0.000065881227148072
630,0.00398588180541992,0.0000517077078348767
631,0.00377464294433594,0.0000609391545246288
632,0.00385236740112305,0.0000783479873126358
633,0.00378656387329102,0.0000699391870113619
634,0.00372982025146484,0.0000879295994519005
635,0.00364017486572266,0.0000906793339120279
636,0.00370216369628906,0.0000752783774604081
637,0.00362777709960937,0.0000565700521037923
638,0.00360631942749023,0.0000674787761034991
639,0.00367927551269531,0.0000772858748665868
640,0.00356340408325195,0.0000712101657752246
641,0.00365972518920898,0.0000904106389325072
642,0.00347566604614258,0.0000835649467193783
643,0.00352621078491211,0.0000731568286121179
644,0.0036168098449707,0.000072607754674186
645,0.00343847274780273,0.0000877509936841772
646,0.00359249114990234,0.0000919764370289527
647,0.00340843200683594,0.0000857180279868129
648,0.00343418121337891,0.0000873172038315615
649,0.003265380859375,0.000107319085701945
650,0.00330924987792969,0.0000807447383403974
651,0.00347089767456055,0.0000930651279748951
652,0.00340747833251953,0.0000951812834771634
653,0.0033869743347168,0.0000664328460955357
654,0.00352907180786133,0.0000819327797269566
655,0.00337362289428711,0.000093880021343897
656,0.00656747817993164,0.0000679287963197123
657,0.00100803375244141,0.0000568297077767928
658,0.00267219543457031,0.0000611821282632594
659,0.00320625305175781,0.0000789320345665814
660,0.00327348709106445,0.000064378314330054
661,0.00334882736206055,0.000063635879499257
662,0.00326395034790039,0.0000797801434987579
663,0.00326728820800781,0.0000812402343490631
664,0.00321149826049805,0.0000678132183710475
665,0.00315332412719727,0.0000883629561225777
666,0.00324678421020508,0.0000865324787562249
667,0.00313138961791992,0.0000878416361974293
668,0.00325632095336914,0.0000469581718601615
669,0.0031285285949707,0.0000643376853907882
670,0.00318813323974609,0.0000584645915314399
671,0.00308752059936523,0.0000509937156834695
672,0.00320148468017578,0.0000655993458918502
673,0.00311040878295898,0.0000805290295316939
674,0.00314998626708984,0.0000764933602599345
675,0.00311899185180664,0.0000709254199529764
676,0.00316667556762695,0.0000651524300916681
677,0.00312328338623047,0.0000536796664379733
678,0.00304317474365234,0.0000539658755318084
679,0.00309944152832031,0.0000620639785679568
680,0.00306987762451172,0.0000667623109225084
681,0.0031275749206543,0.0000646848542976357
682,0.0030827522277832,0.0000746962021906166
683,0.00308704376220703,0.0000818022448854206
684,0.00316572189331055,0.0000838582913855767
685,0.00314521789550781,0.0000545567145124194
686,0.00301504135131836,0.0000856490332159389
687,0.00316047668457031,0.0000731879023206135
688,0.00313854217529297,0.0000638035914752111
689,0.00315713882446289,0.0000538931473390806
690,0.00314235687255859,0.0000635464906652744
691,0.00314664840698242,0.0000585316397749192
692,0.00319194793701172,0.0000650528926900982
693,0.00314950942993164,0.0000663523660287054
694,0.0030970573425293,0.0000688579933923268
695,0.00318479537963867,0.0000712787821008399
696,0.00309228897094727,0.0000741094537176686
697,0.00310325622558594,0.0000811310084394748
698,0.00301456451416016,0.000079773018172219
699,0.00295352935791016,0.0000849667085922366
700,0.00300025939941406,0.0000734127933607687
701,0.00299310684204102,0.0000562536499080831
702,0.00289773941040039,0.0000767174529611617
703,0.00287008285522461,0.0000556685684157005
704,0.00280857086181641,0.0000612044222497627
705,0.00281763076782227,0.0000738281907385327
706,0.00264644622802734,0.0000675781049695633
707,0.00275897979736328,0.0000710791324394763
708,0.00273275375366211,0.0000615119934082031
709,0.00262928009033203,0.000069027840344229
710,0.00253152847290039,0.0000539026391900373
711,0.00262355804443359,0.0000612397044633681
712,0.00261211395263672,0.0000652709779058031
713,0.00269365310668945,0.0000719076126238004
714,0.00261783599853516,0.0000687522460635967
715,0.00265741348266602,0.0000713234270116869
716,0.00267982482910156,0.000064100465590623
717,0.00267696380615234,0.000053897366145877
718,0.00266075134277344,0.0000671832927983111
719,0.00277042388916016,0.0000776688546534864
720,0.00276994705200195,0.0000514697065523896
721,0.0027461051940918,0.0000635285978053771
722,0.00284957885742187,0.0000757075664023946
723,0.0027318000793457,0.0000855321460468869
724,0.00275278091430664,0.0000562587021017175
725,0.00291013717651367,0.0000687538996164203
726,0.00283050537109375,0.0000572899555334358
727,0.00290298461914062,0.0000701680095773548
728,0.00284671783447266,0.000060445575443512
729,0.00287055969238281,0.0000578448874821501
730,0.00284147262573242,0.0000614398710912428
731,0.00291109085083008,0.0000660242993571128
732,0.00281190872192383,0.0000591114621488411
733,0.00280189514160156,0.0000857604587182358
734,0.00278472900390625,0.000083695449058208
735,0.00280332565307617,0.0000799637574205625
736,0.00276708602905273,0.0000775795152664823
737,0.00275325775146484,0.000070880524353264
738,0.0027012825012207,0.0000735242078071083
739,0.00271177291870117,0.0000728110198845916
740,0.00257539749145508,0.0000715637105360207
741,0.00256776809692383,0.0000746916360824634
742,0.00252532958984375,0.0000697357022649077
743,0.00254535675048828,0.000061209994477647
744,0.00256252288818359,0.0000536997824838126
745,0.00252532958984375,0.0000686943466389254
746,0.00244808197021484,0.0000713998961981928
747,0.00247383117675781,0.0000773652676100047
748,0.00250101089477539,0.0000640259322038034
749,0.00250911712646484,0.000078991065327119
750,0.00251865386962891,0.0000636162247324854
751,0.00254535675048828,0.0000652465886106211
752,0.00251245498657227,0.0000612341349390545
753,0.0025177001953125,0.0000641483341808002
754,0.00248813629150391,0.0000626092817770762
755,0.00253820419311523,0.0000649216899170931
756,0.00255537033081055,0.0000659312515209875
757,0.00261068344116211,0.0000776454313168347
758,0.00261592864990234,0.0000692547493663759
759,0.0026249885559082,0.0000508776533272072
760,0.00263214111328125,0.0000483678379363334
761,0.00266313552856445,0.0000575690775786841
762,0.00259923934936523,0.0000664123072649025
763,0.00268173217773437,0.000066185959470943
764,0.00261688232421875,0.0000858677678018541
765,0.00269746780395508,0.0000633386227314771
766,0.00262355804443359,0.0000541393946229426
767,0.00259780883789062,0.0000629551470227096
768,0.00264358520507812,0.00004498220023264
769,0.00269460678100586,0.0000552822717662044
770,0.00257539749145508,0.00005781343294612
771,0.00260305404663086,0.0000524206500777049
772,0.00260210037231445,0.000070326610811564
773,0.00254154205322266,0.0000663694976202302
774,0.00245475769042969,0.0000608261822475509
775,0.0025181770324707,0.0000680308103997519
776,0.00250387191772461,0.0000711270994671645
777,0.00249338150024414,0.0000741063855749313
778,0.00238466262817383,0.0000755828260619514
779,0.0024566650390625,0.000053982726045636
780,0.00238943099975586,0.0000528364834852964
781,0.00232839584350586,0.0000568117005811011
782,0.00233364105224609,0.0000558317060771833
783,0.00226211547851562,0.0000593695773668719
784,0.0022730827331543,0.0000445300552833749
785,0.00220108032226562,0.0000659088314973263
786,0.00233936309814453,0.0000758875513613806
787,0.00224781036376953,0.0000669799222914629
788,0.00226068496704102,0.0000733709693257079
789,0.00223350524902344,0.0000671206525983784
790,0.00225353240966797,0.000060094725950493
791,0.00225067138671875,0.000063878384290026
792,0.00220870971679687,0.0000675107793190064
793,0.00226879119873047,0.0000673877366139584
794,0.00223636627197266,0.0000575117801556576
795,0.00231027603149414,0.0000654431856700812
796,0.00225400924682617,0.000062277926713328
797,0.00225496292114258,0.0000652099875643243
798,0.00230884552001953,0.0000755045704867471
799,0.00231552124023437,0.0000594948711441794
800,0.00226879119873047,0.0000644206824256766
801,0.00229215621948242,0.0000619943322894678
802,0.0023493766784668,0.0000547491293389048
803,0.0023198127746582,0.0000553346871352526
804,0.00233697891235352,0.0000716430970118931
805,0.00233316421508789,0.0000692826505142671
806,0.00235176086425781,0.0000609643346457178
807,0.00237607955932617,0.0000596827948364826
808,0.00232648849487305,0.0000676319172350711
809,0.00230836868286133,0.0000805120867523076
810,0.00220155715942383,0.0000883011782384545
811,0.00223684310913086,0.0000663026593812002
812,0.00231218338012695,0.0000581516550755821
813,0.00222253799438477,0.0000729903595641943
814,0.00218582153320312,0.0000610835658260341
815,0.00218963623046875,0.0000750030139670467
816,0.00218629837036133,0.0000604352300854589
817,0.00208854675292969,0.0000829230649020779
818,0.00204324722290039,0.0000589429364790437
819,0.00205278396606445,0.0000705702884593305
820,0.00206995010375977,0.0000871529976642032
821,0.00208806991577148,0.0000805657266638733
822,0.00205564498901367,0.0000725435298157844
823,0.00205039978027344,0.0000616264756490934
824,0.00200653076171875,0.0000449404792155637
825,0.0019989013671875,0.0000580263997918284
826,0.00204849243164062,0.0000641890829713808
827,0.00205183029174805,0.000062137206106338
828,0.00200986862182617,0.000073757322068082
829,0.00203180313110352,0.0000746474826373086
830,0.00206470489501953,0.0000634318891461025
831,0.00198936462402344,0.0000686231461833745
832,0.0020899772644043,0.0000743024913003401
833,0.00201797485351562,0.0000801341833543449
834,0.00213146209716797,0.0000904307558908543
835,0.00210046768188477,0.000072350513170634
836,0.00217485427856445,0.0000538055324532799
837,0.00205373764038086,0.0000955793886356163
838,0.00218009948730469,0.0000939744303213121
839,0.00218677520751953,0.0000716288139394792
840,0.00222539901733398,0.0000719645065679637
841,0.00227594375610352,0.000071830101233103
842,0.00225639343261719,0.0000715700646945714
843,0.00228500366210937,0.0000741585267379649
844,0.00223302841186523,0.0000775531331593017
845,0.00229644775390625,0.0000733756176179819
846,0.00229310989379883,0.0000658846783242261
847,0.00233697891235352,0.0000653110262613828
848,0.0022892951965332,0.0000658380721820572
849,0.00244379043579102,0.0000552277481818084
850,0.00232267379760742,0.0000672931951992726
851,0.00239181518554687,0.0000841452093306699
852,0.00232267379760742,0.000085081700177454
853,0.0023350715637207,0.0000573246722131345
854,0.00238561630249023,0.0000528085043275346
855,0.00233316421508789,0.000076490387739279
856,0.00225400924682617,0.0000747677014789629
857,0.00229740142822266,0.000073898991446403
858,0.00233078002929687,0.0000713106741749641
859,0.00222969055175781,0.0000782448949451941
860,0.00220012664794922,0.0000629172129823522
861,0.0021357536315918,0.0000658708725347038
862,0.00214958190917969,0.0000738050888665105
863,0.00216150283813477,0.0000609232950351122
864,0.00214147567749023,0.0000790241608373564
865,0.00211191177368164,0.0000740833704541629
866,0.00213050842285156,0.0000818842006442358
867,0.00209999084472656,0.000059812184456211
868,0.00201988220214844,0.0000734143419415197
869,0.00203943252563477,0.0000726281067948734
870,0.00193691253662109,0.0000788095128674662
871,0.00195074081420898,0.0000808319858566936
872,0.00200462341308594,0.0000772196518931467
873,0.001922607421875,0.0000636680287569981
874,0.00191640853881836,0.0000807447383403974
875,0.00191402435302734,0.0000754849939167209
876,0.00198554992675781,0.000066942570680477
877,0.00184297561645508,0.0000650651247833856
878,0.00201272964477539,0.0000451612872793258
879,0.00195455551147461,0.0000518657686163897
880,0.00202035903930664,0.0000755120985853616
881,0.00188350677490234,0.0000624492856740757
882,0.00189971923828125,0.000055767527582927
883,0.00202465057373047,0.0000588299957569194
884,0.00206279754638672,0.0000793672495710876
885,0.00205564498901367,0.0000908897154589203
886,0.00211095809936523,0.0000903200571719941
887,0.00203514099121094,0.0000768137154273368
888,0.00213718414306641,0.0000707794051334195
889,0.00207233428955078,0.0000708115221171639
890,0.00218439102172852,0.0000682543715534498
891,0.00211715698242187,0.0000731443954324544
892,0.00216865539550781,0.0000822595926393426
893,0.00222873687744141,0.0000788066277102151
894,0.0022120475769043,0.0000783900564646358
895,0.0022435188293457,0.0000681026301378372
896,0.0022730827331543,0.0000638374371741931
897,0.00234460830688477,0.0000628249920972463
898,0.00224971771240234,0.0000767322704316932
899,0.00230073928833008,0.000106008096554491
900,0.00236654281616211,0.0000852658974754699
901,0.00238180160522461,0.0000808769800076072
902,0.00227212905883789,0.0000687472851664924
903,0.00227212905883789,0.0000741508612193293
904,0.00238895416259766,0.0000749029067631007
905,0.0023188591003418,0.0000986672756681638
906,0.00230312347412109,0.0000700739744475225
907,0.00246763229370117,0.0000927420691739546
908,0.00220394134521484,0.000117043854795776
909,0.00232458114624023,0.0000937103307697103
910,0.00235176086425781,0.0000720986613466795
911,0.00234603881835937,0.000107579366423402
912,0.00216293334960937,0.0000955008527154545
913,0.00227546691894531,0.0000980315039478822
914,0.00226974487304687,0.0000724258979404147
915,0.00218582153320312,0.0000724776794866184
916,0.00200271606445312,0.0000994408424392421
917,0.00217151641845703,0.0000844244194775362
918,0.00202846527099609,0.000119176860213034
919,0.00211858749389648,0.0000964814918657766
920,0.00202655792236328,0.000106636824109999
921,0.00191354751586914,0.000119941370866325
922,0.00188541412353516,0.0000978457764965496
923,0.00185441970825195,0.0000856238097201449
924,0.00190496444702148,0.0000818480946606819
925,0.00183486938476562,0.0000910721523453696
926,0.00188732147216797,0.000108867259569413
927,0.00180196762084961,0.000108173743732065
928,0.00175046920776367,0.0000797559147913173
929,0.00168132781982422,0.000101692721010449
930,0.00177240371704102,0.000113563351795991
931,0.00167226791381836,0.000121232975632253
932,0.00179672241210937,0.000112575991764918
933,0.00167512893676758,0.0000842977430221434
934,0.00164413452148437,0.0000790083342794828
935,0.00166654586791992,0.000101206370013783
936,0.00150489807128906,0.000105537324512526
937,0.00164794921875,0.0000801838226858028
938,0.00171995162963867,0.0000850148635317026
939,0.00168704986572266,0.000119218825912506
940,0.00176668167114258,0.00012981185552348
941,0.0015711784362793,0.000104254095524048
942,0.00165367126464844,0.0000847885656805451
943,0.00171041488647461,0.000075492523967507
944,0.00191307067871094,0.00011787237085778
945,0.00162124633789062,0.000145881001253709
946,0.00177383422851562,0.0000794860511004358
947,0.00166082382202148,0.000155065215072474
948,0.00185251235961914,0.000111431038835483
949,0.00179719924926758,0.000142496942815565
950,0.00197458267211914,0.000127535890032991
951,0.00191164016723633,0.0000870433547901239
952,0.00197839736938477,0.0000900098816985849
953,0.00176334381103516,0.0000860066728992272
954,0.00196981430053711,0.0000690113686709222
955,0.00191307067871094,0.000100285554354578
956,0.00192070007324219,0.000105155297461209
957,0.00179529190063477,0.000123027683172955
958,0.00213909149169922,0.000124226833251448
959,0.0019993782043457,0.000160625482722681
960,0.00202798843383789,0.000141407745591179
961,0.00206089019775391,0.000119131062589971
962,0.00212717056274414,0.000125812740967106
963,0.00185537338256836,0.000151885921370186
964,0.00212430953979492,0.000142266985253975
965,0.00209569931030273,0.00015758151491373
966,0.00200176239013672,0.000129369708595271
967,0.00185012817382812,0.000146890613399431
968,0.00206565856933594,0.000117702498039575
969,0.00184106826782227,0.000109863115681418
970,0.00203657150268555,0.000158252475835354
971,0.00188827514648437,0.000141317672856334
972,0.00226020812988281,0.000144282446017804
973,0.00187826156616211,0.000118176756991695
974,0.00204563140869141,0.00011510655418102
975,0.00180721282958984,0.000123606640173914
976,0.00202703475952148,0.000123016593770108
977,0.00219869613647461,0.000140118742954582
978,0.00200843811035156,0.000192514698392738
979,0.00164318084716797,0.000160956380985663
980,0.00170326232910156,0.000152137209996172
981,0.00183963775634766,0.000155413805033477
982,0.00188589096069336,0.00019660962289459
983,0.00149106979370117,0.000179463161621495
984,0.00191926956176758,0.000131198691783701
985,0.00191307067871094,0.000134586390398545
986,0.00167655944824219,0.000161683660934119
987,0.00166082382202148,0.000132869114756268
988,0.00183010101318359,0.000186354891785801
989,0.00139808654785156,0.000183502402813808
990,0.00151777267456055,0.000193912735399457
991,0.0014653205871582,0.000175693625889425
992,0.00201654434204102,0.000220288445697445
993,0.00151920318603516,0.000222662020073128
994,0.00155305862426758,0.000253160566922526
995,0.00153350830078125,0.000212046219174618
996,0.00142335891723633,0.00020086563658339
997,0.0012211799621582,0.000258725356411944
998,0.00149965286254883,0.000244453349098122
999,0.00145769119262695,0.000286331085278247
1000,0.00148963928222656,0.000265758763845858
1001,0.00124073028564453,0.000232007617180404
1002,0.00133800506591797,0.000243502767104163
1003,0.00111627578735352,0.000242435941245051
1004,0.00181818008422852,0.000241251329416558
1005,0.000810623168945313,0.000244780536303033
1006,0.00172662734985352,0.000298120482787162
1007,0.00144481658935547,0.000265217496095409
1008,0.0011591911315918,0.000166860304762321
1009,0.00125932693481445,0.000246313971519824
1010,0.00123453140258789,0.000234789890889409
1011,0.00121688842773437,0.000255214365900844
1012,0.00138092041015625,0.000242222012235411
1013,0.00129461288452148,0.000301952024108686
1014,0.00145673751831055,0.00031661412796875
1015,0.00131464004516602,0.000256486979725364
1016,0.000731945037841797,0.000266974307356608
1017,0.00102710723876953,0.000298181491788678
1018,0.0015101432800293,0.000355340637187107
1019,0.00111293792724609,0.000398895872458687
1020,0.00115680694580078,0.000293892655297766
1021,0.00181818008422852,0.000240015404527079
1022,0.00100374221801758,0.000255477939904862
1023,0.000182628631591797,0.00031841870132523
1024,0.000988960266113281,0.000384915997196294
1025,0.000328540802001953,0.000524545148807956
1026,0.00134038925170898,0.000323524787703872
1027,0.000537872314453125,0.000336018318335323
1028,0.00165414810180664,0.000402373717867867
1029,0.00105190277099609,0.000372397304134088
1030,0.00127124786376953,0.00035468479971551
1031,0.00100564956665039,0.000590724070252971
1032,0.000898361206054688,0.000477850790316306
1033,0.000812530517578125,0.000476562420852842
1034,0.000841617584228516,0.000511638938161563
1035,0.000873088836669922,0.00041655376265621
1036,0.000732421875,0.00036899186282927
1037,0.000781059265136719,0.000505515759720061
1038,0.000104427337646484,0.000503308792189656
1039,0.000464916229248047,0.000447613722780892
1040,0.0001983642578125,0.000533934987839283
1041,0.000671863555908203,0.000722016489521544
1042,-0.000134944915771484,0.000635086950255352
1043,0.00122499465942383,0.000627224862548431
1044,-0.000502586364746094,0.000563194545634732
1045,0.0015416145324707,0.000673701889542223
1046,0.000647068023681641,0.000725274176897954
1047,0.0000605583190917969,0.000660372467296826
1048,-0.00029754638671875,0.000644266117356746
1049,0.000064849853515625,0.000673464248373838
1050,-0.00000619888305664063,0.000632561469767487
1051,-0.000738620758056641,0.000523003203190584
1052,0.000253677368164062,0.000753960222081326
1053,-0.000502109527587891,0.000755271525315221
1054,-0.00131797790527344,0.000695594121124667
1055,-0.0010066032409668,0.000725655293134201
1056,-0.000286102294921875,0.000812969178900385
1057,0.000631332397460938,0.00116724749689238
1058,0.0000524520874023438,0.000883265123970829
1059,-0.000835895538330078,0.00087552080875868
1060,-0.00125741958618164,0.00095104618338668
1061,-0.00193023681640625,0.000808067781889166
1062,-0.00220775604248047,0.00079182309863341
1063,0.000210285186767578,0.000743934432571344
1064,-0.00144147872924805,0.00139022558348304
1065,-0.000635147094726563,0.00131425040610465
1066,-0.00164937973022461,0.00102945950976787
1067,0.000626564025878906,0.00126175977652018
1068,-0.00261068344116211,0.00105883792756696
1069,0.00118350982666016,0.00117170213378019
1070,-0.00377035140991211,0.00136572555307102
1071,0.000473499298095703,0.00184015555483227
1072,-0.00134992599487305,0.00101195226095436
1073,-0.000674247741699219,0.000925046389695611
1074,0.000294208526611328,0.00128153390617396
1075,0.0008392333984375,0.001359895435275
1076,-0.00209712982177734,0.00141351907256877
1077,-0.000522136688232422,0.00110539369362029
1078,-0.00326299667358398,0.00164685389534169
1079,0.00205230712890625,0.00135588744455097
1080,-0.00130653381347656,0.00181004872922676
1081,-0.00394821166992187,0.00233274897995439
1082,-0.000579357147216797,0.00240542601745352
1083,0.000594139099121094,0.00175956400394738
1084,-0.00384807586669922,0.00160308085551839
1085,0.00200796127319336,0.00199761968391976
1086,-0.000432968139648438,0.00254305012890621
1087,-0.000265121459960937,0.00187195555564564
1088,0.00129508972167969,0.00242336281329923
1089,-0.00251197814941406,0.00248545018807951
1090,-0.000483512878417969,0.00293437265247743
1091,-0.000563621520996094,0.00260786945630519
1092,0.000745296478271484,0.00238388975212858
1093,-0.00156974792480469,0.00244968916590143
1094,0.000846385955810547,0.00317646797140851
1095,-0.000738143920898438,0.00215349036689226
1096,-0.000117301940917969,0.00286190782214519
1097,-0.00208377838134766,0.00313708234606007
1098,0.00238704681396484,0.00289579496198156
1099,-0.005218505859375,0.00340534330689648
1100,0.00345945358276367,0.00249064386030401
