Wavelength (nm),Absorbance (AU),Std.Dev.
190,0.91106653213501,0.693070472381777
191,1.1773829460144,0.624352692137775
192,1.26065731048584,0.769005610451738
193,1.27450847625732,0.705637870786071
194,1.34763431549072,0.829468986055612
195,1.28924131393433,0.420507404275812
196,1.06818866729736,0.663602782049435
197,1.79709005355835,1.42526210582913
198,1.83558130264282,0.890796310278758
199,1.60253429412842,0.460241794892234
200,1.64675664901733,0.302192054564307
201,1.64952087402344,0.55040712027269
202,2.92141151428223,1.15754256299985
203,2.65551376342773,0.568839064111612
204,3.10171890258789,0.245659338805158
205,3.18620491027832,0.17763239691176
206,3.19560575485229,0.213668661424646
207,3.80296611785889,0.418844001809221
208,3.53888273239136,0.24343648457346
209,3.10631990432739,0.133949350834064
210,3.32061147689819,0.0866860817901181
211,3.29851770401001,0.108876865095068
212,3.28182649612427,0.0811884133138523
213,3.27896738052368,0.0776720266607351
214,3.32033681869507,0.105748688096731
215,3.47068929672241,0.0870182398825995
216,3.2474102973938,0.0718470643528873
217,3.12872505187988,0.106622111631315
218,3.40005016326904,0.0631319521862014
219,3.13142490386963,0.0472725855218323
220,3.01317930221558,0.0540814193520142
221,3.00915288925171,0.0390144052066561
222,2.9670557975769,0.0410918481190861
223,2.85020112991333,0.0237262737820581
224,2.76433610916138,0.0144200642813944
225,2.71618843078613,0.021932947517855
226,2.61749887466431,0.0161553037207674
227,2.49394655227661,0.0102300821284431
228,2.36251592636108,0.00616923239424778
229,2.27672910690308,0.00749639941253786
230,2.18328237533569,0.00523036034196068
231,2.08804035186768,0.00560145137788372
232,2.01197242736816,0.00305412200903325
233,1.93648672103882,0.00116357646626565
234,1.86916208267212,0.00130941393755645
235,1.80658197402954,0.00123407667514622
236,1.75764799118042,0.00130096278055173
237,1.71825551986694,0.000923408915227368
238,1.68350124359131,0.000916067599792428
239,1.65844058990479,0.00113262466813676
240,1.64044761657715,0.00133374822405748
241,1.62898302078247,0.000991028689086716
242,1.62606477737427,0.0010340855567318
243,1.63157939910889,0.00139143926109038
244,1.64522790908813,0.0011285831985762
245,1.66465473175049,0.0014276552295796
246,1.69215154647827,0.00105938751647948
247,1.73058128356934,0.00266579386029817
248,1.77928686141968,0.00270429482807775
249,1.83229112625122,0.00278053490414531
250,1.89694309234619,0.00507299090323938
251,1.96576356887817,0.00487431740872663
252,2.03520917892456,0.00648956137378421
253,2.13165044784546,0.0125007390757459
254,2.22181701660156,0.0128606157967304
255,2.29382801055908,0.0140590345563197
256,2.36022758483887,0.0162839234659378
257,2.47117376327515,0.0192019356467145
258,2.59991979598999,0.0232626432271952
259,2.66419219970703,0.030815924463847
260,2.67553806304932,0.0349897042526301
261,2.7890133857727,0.0281450835682707
262,2.78342580795288,0.0294455253854507
263,2.7872109413147,0.0351986100052441
264,2.80824041366577,0.0314979255235385
265,2.75007963180542,0.0230483491070547
266,2.7471284866333,0.0371944055636976
267,2.70405673980713,0.0343796466807906
268,2.62304162979126,0.0220505076983558
269,2.54590320587158,0.0184987882526589
270,2.52962112426758,0.0167752326107811
271,2.41651821136475,0.0217590118022883
272,2.31041240692139,0.0187595502055646
273,2.25068759918213,0.0153651081146449
274,2.1260929107666,0.0102747750227493
275,1.93329858779907,0.00672190791591528
276,1.72871112823486,0.00299927403686474
277,1.51485347747803,0.001629621527078
278,1.32942152023315,0.00108270221350855
279,1.168297290802,0.00072118967969064
280,1.03472280502319,0.000544340057206895
281,0.925652027130127,0.000475278213355019
282,0.83792781829834,0.000444948094368243
283,0.764627933502197,0.000333671550199046
284,0.7060227394104,0.000275722402303105
285,0.658565998077393,0.00029153123484676
286,0.619138240814209,0.00019972135246477
287,0.586472511291504,0.000173322272081691
288,0.559639453887939,0.000203090090170353
289,0.537752628326416,0.000169410787168782
290,0.519649982452393,0.000162368478838387
291,0.505035400390625,0.00016708090967019
292,0.49325704574585,0.000189371001187897
293,0.483539581298828,0.000264558262523848
294,0.476140022277832,0.000188673322511139
295,0.46999454498291,0.000155478164635497
296,0.465253829956055,0.000175797127298042
297,0.462371826171875,0.000199671254182764
298,0.460061550140381,0.000210297620929031
299,0.458350658416748,0.000202372296574494
300,0.458331108093262,0.000150075736862108
301,0.459233283996582,0.000157064108856508
302,0.460092067718506,0.000230623611453123
303,0.461485862731934,0.000266339912066294
304,0.463715076446533,0.000310698837535931
305,0.466876029968262,0.000299429436930932
306,0.470127105712891,0.000236530456992033
307,0.473384857177734,0.000214184296243741
308,0.477739334106445,0.000191415525900132
309,0.481478214263916,0.000197242351849289
310,0.485857963562012,0.000216586974973206
311,0.49044942855835,0.000285249073617099
312,0.495066642761231,0.000276414237886799
313,0.500185489654541,0.000221453772397311
314,0.504451274871826,0.000337929215597895
315,0.509224414825439,0.00018935659249864
316,0.513311862945557,0.00013960827861912
317,0.518203258514404,0.000187541939594755
318,0.522457122802734,0.000194151789612357
319,0.526044368743897,0.000199876122310989
320,0.529630184173584,0.000245826088860805
321,0.533052921295166,0.000339963157889935
322,0.536062717437744,0.000289049859511587
323,0.538222312927246,0.000440882305908176
324,0.540816783905029,0.00035733147100599
325,0.54245662689209,0.000309496335989176
326,0.543694496154785,0.000404897365961772
327,0.544726848602295,0.000361290298234606
328,0.54515552520752,0.000276401076244153
329,0.544247627258301,0.000405436103991285
330,0.543905258178711,0.000262341920158714
331,0.543046951293945,0.000301921902102675
332,0.540523529052734,0.000222064861538534
333,0.5382080078125,0.000233597652207748
334,0.536112308502197,0.000313931275734219
335,0.533482551574707,0.000334145488625018
336,0.529270172119141,0.000251878368298813
337,0.525770664215088,0.00027310408547474
338,0.521196842193604,0.00032811386261215
339,0.515641212463379,0.000281493901172414
340,0.510462760925293,0.000288886195299609
341,0.50474214553833,0.000276078419995802
342,0.49837589263916,0.000292857218414003
343,0.491552352905273,0.000239343755477075
344,0.484636783599854,0.000164333886279561
345,0.476955413818359,0.000234747276832814
346,0.469273090362549,0.000301421437074918
347,0.461736679077148,0.000293496272879772
348,0.453274726867676,0.000279776253483717
349,0.444539546966553,0.000298571654195396
350,0.436191558837891,0.000217847271129366
351,0.427201747894287,0.000249593167159357
352,0.417439460754395,0.000293452886069754
353,0.407948017120361,0.000250937791438337
354,0.398805618286133,0.000185528263300496
355,0.388565540313721,0.000199625699379821
356,0.379296779632568,0.000269341670359816
357,0.369277477264404,0.000227610714164315
358,0.359109401702881,0.000238265942351537
359,0.349078178405762,0.000202093466192787
360,0.339079856872559,0.000285491290925105
361,0.328486442565918,0.000388818527474583
362,0.318421363830566,0.000297332344340698
363,0.30894947052002,0.000327197861140771
364,0.300319194793701,0.000299168104269273
365,0.290465831756592,0.000299168104269273
366,0.281895637512207,0.000261452905482523
367,0.274703025817871,0.000203970403828352
368,0.267608165740967,0.000186861768669962
369,0.259252548217773,0.000181574180265997
370,0.250819683074951,0.00018134863775642
371,0.243090629577637,0.00016556895785786
372,0.235066413879395,0.000236711109977598
373,0.226986885070801,0.000238624483841452
374,0.218998908996582,0.000206720869912795
375,0.211690425872803,0.000199753226647736
376,0.204108715057373,0.000283335981365044
377,0.196481227874756,0.000176592056260722
378,0.189405918121338,0.00018499315294981
379,0.182569980621338,0.000156408402869821
380,0.175675392150879,0.000200602847872718
381,0.169519901275635,0.000213307761087814
382,0.163276672363281,0.000219112770776122
383,0.156773090362549,0.000193273811964316
384,0.15080738067627,0.000198625429322396
385,0.144736289978027,0.000175066137389114
386,0.139223575592041,0.000204032819638289
387,0.133818626403809,0.000198785627756712
388,0.128458023071289,0.000173809597013771
389,0.122767925262451,0.000195454382026267
390,0.118210315704346,0.000175709154987393
391,0.11346960067749,0.000129517258616371
392,0.108865737915039,0.000186159571648507
393,0.104203701019287,0.000211964709958008
394,0.0995135307312012,0.00022899307091137
395,0.0954718589782715,0.000184352917025608
396,0.0916886329650879,0.000141272614953165
397,0.0875873565673828,0.000188494880618709
398,0.0839438438415527,0.000130987089245262
399,0.0800085067749023,0.000189591797300067
400,0.0765128135681152,0.000212157707356443
401,0.0736026763916016,0.000160857465681391
402,0.0703692436218262,0.000180393238314066
403,0.0672917366027832,0.000170731676006013
404,0.0641388893127441,0.000200847524262652
405,0.061028003692627,0.000240881595361101
406,0.0579943656921387,0.000218318527251152
407,0.0556879043579102,0.000235818031637116
408,0.0533876419067383,0.00021545864700191
409,0.0507707595825195,0.000189754829301365
410,0.0484743118286133,0.000224285871055358
411,0.0460724830627441,0.000211096192310677
412,0.0441350936889648,0.00021294930342783
413,0.0417423248291016,0.000217559011005444
414,0.0397257804870605,0.000140885813237147
415,0.0376243591308594,0.000119740257332692
416,0.0362210273742676,0.000149611410344711
417,0.0345330238342285,0.000183621315712871
418,0.0326786041259766,0.000205379028332556
419,0.0309042930603027,0.000195789128120857
420,0.0295214653015137,0.00014828332310163
421,0.0279769897460937,0.000150948901166975
422,0.0266141891479492,0.000158031057124803
423,0.0253210067749023,0.000222081243439743
424,0.0237512588500977,0.000222911043998861
425,0.0229225158691406,0.000134495130482712
426,0.0214076042175293,0.000129024769022276
427,0.0207114219665527,0.000153996994609405
428,0.0192732810974121,0.000140274437702873
429,0.0185732841491699,0.000189212445258206
430,0.0172572135925293,0.000100927402918419
431,0.0162510871887207,0.000158309936523437
432,0.0155019760131836,0.000150698648644472
433,0.014739990234375,0.000165854355550652
434,0.0140590667724609,0.000125801897066581
435,0.0126566886901855,0.000172844097277972
436,0.0124945640563965,0.000188572065401846
437,0.011711597442627,0.000164632474340681
438,0.0109262466430664,0.00011424803373579
439,0.0101914405822754,0.000137867798170394
440,0.00951766967773438,0.000150565815962296
441,0.00947713851928711,0.000170208825359541
442,0.00856256484985352,0.000163354138453905
443,0.00820636749267578,0.00014631054916044
444,0.00742435455322266,0.000134596526569652
445,0.00714254379272461,0.000106427660952781
446,0.00669670104980469,0.000145068252572104
447,0.00611305236816406,0.000106372099653795
448,0.00592613220214844,0.00011704191214306
449,0.00562429428100586,0.000135881021267476
450,0.00540256500244141,0.000114466743734116
451,0.00453519821166992,0.0000850843725512333
452,0.00442075729370117,0.000127806591550834
453,0.00395679473876953,0.000108371145070973
454,0.00373554229736328,0.000108831748590146
455,0.00381040573120117,0.0000968366930591384
456,0.00333642959594727,0.0000882522400771361
457,0.00301647186279297,0.000152900494796692
458,0.00294303894042969,0.000119745953869648
459,0.00257492065429687,0.0000958051174535702
460,0.00215435028076172,0.0000925162398629831
461,0.00246763229370117,0.0000931090946003641
462,0.00185298919677734,0.000121984600731842
463,0.00189495086669922,0.000151897896921838
464,0.00165987014770508,0.00010928416937659
465,0.00175857543945312,0.000101569672649912
466,0.00162887573242187,0.000128129968632257
467,0.0010228157043457,0.000113573362228537
468,0.00113439559936523,0.000136078330854316
469,0.000990867614746094,0.000124468199753994
470,0.000894069671630859,0.0000691512528320826
471,0.000790119171142578,0.0000983579948085495
472,0.000631332397460938,0.000110428732499162
473,0.000786304473876953,0.000118781275075676
474,0.000535964965820313,0.000135961317342598
475,0.000475883483886719,0.000107319085701945
476,0.000388145446777344,0.000113306783601983
477,0.000268936157226562,0.000102912903963234
478,0.000390052795410156,0.000128353367809009
479,0.000183582305908203,0.000147773366306544
480,0.000170230865478516,0.000105580404490037
481,0.00002288818359375,0.000103342834950318
482,0.0000324249267578125,0.0000947575139144819
483,-0.0000443458557128906,0.000117540117692989
484,-0.000105857849121094,0.000107452478980279
485,0.000600814819335938,0.000118288297136385
486,0.000409126281738281,0.0000744034063468627
487,-0.00058746337890625,0.0000961131504317054
488,-0.000421047210693359,0.000120780131930243
489,-0.000275611877441406,0.000106747642215241
490,-0.00022125244140625,0.0000985242962523583
491,-0.000138759613037109,0.000119289371294928
492,-0.000311374664306641,0.000102127788774319
493,-0.000145435333251953,0.0000969610578130559
494,-0.000344753265380859,0.0000866453923517266
495,-0.000347137451171875,0.0000958881467522103
496,-0.000282764434814453,0.0000902319043923559
497,-0.000383853912353516,0.0000972981518362729
498,-0.000439643859863281,0.0000974825901967856
499,-0.00028228759765625,0.0000931335115348306
500,-0.000363826751708984,0.0000895006960077131
501,-0.000293731689453125,0.0000842721150725073
502,-0.000438213348388672,0.0000677243071654548
503,-0.00037384033203125,0.0000974405969766118
504,-0.000516414642333984,0.0000695201758140854
505,-0.000365257263183594,0.000102027553186098
506,-0.000376701354980469,0.000104011727596406
507,-0.000380516052246094,0.000105094736587188
508,-0.000344276428222656,0.0000789896260773384
509,-0.000416278839111328,0.0000858796827564711
510,-0.000217437744140625,0.0000864115241247123
511,-0.000371932983398437,0.0000861559110480514
512,-0.000407218933105469,0.0000742106312660829
513,-0.000382423400878906,0.000099915307105621
514,-0.000255584716796875,0.000114575942175443
515,-0.000304222106933594,0.0001008372489005
516,-0.000354290008544922,0.0000876524756822465
517,-0.000275611877441406,0.0000673472351157907
518,-0.000306129455566406,0.000106363549185581
519,-0.000268936157226562,0.0000870329054077585
520,-0.000228404998779297,0.0000927347138487736
521,-0.000248908996582031,0.0000905262503936011
522,-0.000272750854492187,0.0000872155888490004
523,-0.000154972076416016,0.0000866690068129468
524,-0.000308513641357422,0.000105584711521042
525,-0.000241279602050781,0.0000971274101072385
526,-0.000165462493896484,0.000109213406990173
527,-0.000164508819580078,0.0000858637957828956
528,-0.0000748634338378906,0.0000843718853100765
529,-0.000142574310302734,0.0000846852590310438
530,-0.000116825103759766,0.000115522597384516
531,-0.00017547607421875,0.0000937539948230712
532,0.000087738037109375,0.0000823424738620184
533,-0.000034332275390625,0.000082114349204442
534,-0.0000433921813964844,0.000105101226921398
535,0.0000605583190917969,0.000108595409896269
536,-0.0000715255737304688,0.0000804640628370581
537,-0.0000405311584472656,0.0000680257968907433
538,-0.0000424385070800781,0.0000656582430956211
539,-0.0000386238098144531,0.000101554001254279
540,-0.0000104904174804687,0.0000833947157245718
541,-0.0000562667846679688,0.0000583945460691506
542,0.0000133514404296875,0.0000637875530339316
543,-0.0000452995300292969,0.000109956208637886
544,0.0000152587890625,0.0000863667806311586
545,-0.00000333786010742187,0.000079190866533962
546,-0.0000333786010742187,0.0000746017791599101
547,0.0000290870666503906,0.0000907971074661561
548,0.0000376701354980469,0.0000871712580688888
549,-0.0000476837158203125,0.0000781416665680224
550,0.000125408172607422,0.000109280008151672
551,0.0000467300415039063,0.0000808390178435756
552,0.000141620635986328,0.0000837823376869103
553,0.0000567436218261719,0.0000955341788696137
554,0.0000743865966796875,0.0000717350752605114
555,0.000212669372558594,0.0000826759180848598
556,0.000104427337646484,0.0000919294553931113
557,0.0000996589660644531,0.0000933529765588018
558,0.000214099884033203,0.0000877043410570112
559,0.000179767608642578,0.0000975805040989832
560,0.000213623046875,0.000107585706867191
561,0.000154972076416016,0.000074534696699621
562,0.0000238418579101562,0.0000612805321747488
563,0.000222206115722656,0.0000630940433770107
564,0.000205039978027344,0.0000758336007275814
565,-0.0000181198120117187,0.0000809486377439331
566,0.000144004821777344,0.000106820038047377
567,0.000251293182373047,0.0000768418309098976
568,0.000271797180175781,0.0000604324083168063
569,0.000270366668701172,0.0000746718463873392
570,0.000316143035888672,0.0000985958118780912
571,0.000244617462158203,0.0000836519708999191
572,0.000335216522216797,0.0000620713052092959
573,0.000339031219482422,0.0000735443063156055
574,0.000461101531982422,0.0000798897932760595
575,0.000331878662109375,0.0000739174500432805
576,0.000407218933105469,0.0000812178410097413
577,0.000313758850097656,0.0000862587743664627
578,0.000505447387695313,0.0000759609225965753
579,0.000133514404296875,0.0000724149092159015
580,0.000492572784423828,0.0000728344370594436
581,0.000359058380126953,0.0000827336517116406
582,0.000678062438964844,0.0000784639854326582
583,-0.000143051147460937,0.0000795889642109571
584,0.000411510467529297,0.000082182161418192
585,0.000513553619384766,0.0000566333211616821
586,0.000182151794433594,0.0000742596374252171
587,0.000380039215087891,0.0000843098798582131
588,0.000387191772460937,0.0000638961791992188
589,0.000234127044677734,0.0000630634042625164
590,0.000353813171386719,0.0000659777918421091
591,0.000323295593261719,0.0000640472363078326
592,0.000450611114501953,0.0000605376651415795
593,0.00057220458984375,0.0000529707923464168
594,0.000217914581298828,0.0000824666395126361
595,0.000490665435791016,0.0000824142368334515
596,0.000290870666503906,0.0000815558834649032
597,0.000313758850097656,0.000102897437143447
598,0.000292778015136719,0.0000831366645116544
599,0.000569343566894531,0.0000965804206937573
600,0.000302314758300781,0.0000707761926334685
601,0.000409126281738281,0.0000649006728592691
602,0.000362396240234375,0.0000690492476452071
603,0.000341892242431641,0.000077435770602409
604,0.000373363494873047,0.0000597332520619204
605,0.000304222106933594,0.0000667146138173734
606,0.000370502471923828,0.0000733957568160521
607,0.000408172607421875,0.0000822858473920273
608,0.000426292419433594,0.000054621274997279
609,0.000242710113525391,0.0000643730163574219
610,0.000547409057617188,0.0000724447318759665
611,0.000227451324462891,0.000076929071386807
612,0.000379085540771484,0.000063378098349352
613,0.000310420989990234,0.0000776732457427313
614,0.000308513641357422,0.0000715684762078227
615,0.000329017639160156,0.0000870381302557541
616,0.000242233276367187,0.0000769305491863401
617,0.000231266021728516,0.000083099734637882
618,0.000287055969238281,0.0000851364670736304
619,0.000169754028320312,0.0000619741569171141
620,0.000353336334228516,0.0000639744179964005
621,0.000181674957275391,0.0000661344087508614
622,0.000300407409667969,0.0000659691757412768
623,0.000249862670898437,0.0000949397031906073
624,0.000365734100341797,0.0000787575638659003
625,0.000275611877441406,0.0000748588779302355
626,0.000271797180175781,0.0000721554046506506
627,0.000417709350585938,0.0000854576800618948
628,0.000444889068603516,0.000090040189757707
629,0.000341892242431641,0.0000613454293510196
630,0.000455379486083984,0.0000582590811820685
631,0.000341892242431641,0.0000664482460523386
632,0.000322341918945312,0.0000741738553986503
633,0.000247955322265625,0.0000671104892187469
634,0.000249862670898437,0.0000914135510736218
635,0.000220298767089844,0.000088940036927528
636,0.000279426574707031,0.0000698594916222093
637,0.000224590301513672,0.0000554198845892625
638,0.000261783599853516,0.0000717398295485678
639,0.000316619873046875,0.000082114349204442
640,0.000225543975830078,0.0000764740368103801
641,0.000267505645751953,0.0000937006248835352
642,0.000270843505859375,0.0000812010419525408
643,0.000174522399902344,0.0000787330204781249
644,0.000265121459960937,0.00010161667233569
645,0.000210762023925781,0.000102963707155561
646,0.000353813171386719,0.000106472516220143
647,0.000209331512451172,0.0000860568880616858
648,0.000267982482910156,0.0000768048347156558
649,0.00014495849609375,0.0000794531479867594
650,0.000148773193359375,0.000072895286508171
651,0.000225543975830078,0.0000804358000814138
652,0.000243186950683594,0.0000787315765111648
653,0.000296115875244141,0.0000555233822681675
654,0.000388622283935547,0.0000645652303145913
655,0.000180721282958984,0.0000800845132546065
656,0.00253438949584961,0.0000629695920747032
657,-0.00137805938720703,0.0000620438258431403
658,-0.000210285186767578,0.0000691906983376903
659,0.000106334686279297,0.0000804654757142557
660,0.000205039978027344,0.0000656426578021083
661,0.000264644622802734,0.0000708564614376276
662,0.0002288818359375,0.0000625929373137444
663,0.000200271606445312,0.0000769172479684037
664,0.000113010406494141,0.0000716605502343193
665,0.000170230865478516,0.0000952338236451716
666,0.000187873840332031,0.0000928694689169303
667,0.0000958442687988281,0.0000918081812731339
668,0.000295639038085937,0.000054160389464009
669,0.000210285186767578,0.0000650825952143272
670,0.000206947326660156,0.0000687952255200234
671,0.000176906585693359,0.0000789507564156339
672,0.000288009643554687,0.0000780018729338306
673,0.000148296356201172,0.0000782797582596875
674,0.000209331512451172,0.0000786116347932773
675,0.000242233276367187,0.0000761507598025403
676,0.000247001647949219,0.0000628213728333613
677,0.000254154205322266,0.0000508351798290323
678,0.000190258026123047,0.0000711143114232878
679,0.000161170959472656,0.000055663462659674
680,0.000242710113525391,0.0000606117988594137
681,0.000334739685058594,0.0000751937576348386
682,0.000267505645751953,0.0000709750926695049
683,0.000313282012939453,0.000069927807516625
684,0.000347137451171875,0.0000658311647622006
685,0.000345230102539062,0.0000671799083348043
686,0.000276565551757812,0.0000810945671105321
687,0.000307083129882812,0.0000635339661924525
688,0.000336170196533203,0.0000511184112138801
689,0.000361442565917969,0.0000515403400280138
690,0.000336647033691406,0.0000590874164812681
691,0.00029754638671875,0.0000571120745645865
692,0.000352382659912109,0.0000630038857999088
693,0.000404834747314453,0.0000662975151871706
694,0.000323772430419922,0.0000669204894746736
695,0.000392436981201172,0.000064807765991333
696,0.000325679779052734,0.0000612025647277286
697,0.000322818756103516,0.0000814568511347229
698,0.000283241271972656,0.0000851778528123249
699,0.000256061553955078,0.0000865587508759535
700,0.000316619873046875,0.0000746642335694753
701,0.000280380249023437,0.0000573117799012815
702,0.000275611877441406,0.0000713298025750331
703,0.000278472900390625,0.0000589795715532591
704,0.00025177001953125,0.0000583322128245446
705,0.000214576721191406,0.0000606464885543238
706,0.0000743865966796875,0.0000688530401143725
707,0.000160694122314453,0.0000697585220731922
708,0.000131130218505859,0.0000622450594790677
709,0.0000700950622558594,0.0000674046050556389
710,0.0000939369201660156,0.0000510405122073714
711,0.000154495239257812,0.000067487199473703
712,0.000140666961669922,0.0000711558641629057
713,0.000163555145263672,0.0000688563423392666
714,0.000182628631591797,0.0000704267659069949
715,0.000167369842529297,0.000073898991446403
716,0.000200748443603516,0.0000729545268970691
717,0.000193595886230469,0.0000633529803476043
718,0.000213623046875,0.0000636751708321518
719,0.000252723693847656,0.0000728906075848048
720,0.000209331512451172,0.0000635751087665518
721,0.000241279602050781,0.0000690097212873556
722,0.000311851501464844,0.0000676218306971857
723,0.00025177001953125,0.0000865640043430706
724,0.000288963317871094,0.0000668610038280116
725,0.000374317169189453,0.0000678886176117493
726,0.000338554382324219,0.0000574217672528461
727,0.000386238098144531,0.0000640348097751781
728,0.000344753265380859,0.0000677125554481056
729,0.000359535217285156,0.0000720734277606947
730,0.000359058380126953,0.000078786428651134
731,0.000374794006347656,0.0000662975151871706
732,0.000346183776855469,0.0000556879660193317
733,0.000324726104736328,0.0000778340812787655
734,0.000331401824951172,0.0000717984398831128
735,0.000350475311279297,0.0000687505924710028
736,0.000349044799804687,0.0000809374015100248
737,0.000376224517822266,0.0000676705683693191
738,0.000321865081787109,0.0000630616014980759
739,0.000263690948486328,0.0000687406700801007
740,0.000247955322265625,0.0000669578534033884
741,0.000164031982421875,0.0000667026842119053
742,0.000253200531005859,0.0000689965408028182
743,0.000232696533203125,0.000076010295967142
744,0.000256538391113281,0.0000596761274851981
745,0.000204086303710937,0.0000699733143919492
746,0.000182628631591797,0.000068274356242016
747,0.000281333923339844,0.0000781096526248084
748,0.000149726867675781,0.0000642828840167062
749,0.000222682952880859,0.0000802405157481306
750,0.000265598297119141,0.0000690163105856889
751,0.0002593994140625,0.0000706781412424507
752,0.000211715698242187,0.0000664311347688544
753,0.000301361083984375,0.0000587990682064951
754,0.000266551971435547,0.0000592286649484513
755,0.000287055969238281,0.0000598055315297821
756,0.000286579132080078,0.0000449354194903488
757,0.000303268432617187,0.0000715875357224636
758,0.000300884246826172,0.0000624620276402425
759,0.000327587127685547,0.0000507490061158393
760,0.000390052795410156,0.0000628521299332864
761,0.000378608703613281,0.0000626818722730827
762,0.000346660614013672,0.0000617683598125888
763,0.000396728515625,0.0000608261822475509
764,0.000376701354980469,0.0000833524446362757
765,0.000422000885009766,0.0000606258646415855
766,0.000369548797607422,0.0000487459597835502
767,0.000353336334228516,0.0000583019962011473
768,0.000371932983398437,0.0000505548592997711
769,0.000396728515625,0.0000551649279174025
770,0.000360012054443359,0.0000592209866253015
771,0.000370025634765625,0.00004901343252513
772,0.000370979309082031,0.0000641713692853158
773,0.000309944152832031,0.0000690261933537764
774,0.000238895416259766,0.0000574771764907815
775,0.000339031219482422,0.0000695234463513729
776,0.000326633453369141,0.0000699798129584263
777,0.000333786010742187,0.0000777112914560828
778,0.000221729278564453,0.0000871582153130638
779,0.000301361083984375,0.0000616264756490934
780,0.000261306762695312,0.000049823208464043
781,0.00023651123046875,0.0000569136660246402
782,0.000253200531005859,0.000055875468118943
783,0.000203609466552734,0.0000606717901383189
784,0.000216484069824219,0.0000492309830633833
785,0.000175952911376953,0.000058449033127457
786,0.000255584716796875,0.0000779420929953275
787,0.000184059143066406,0.0000746535743202498
788,0.000263690948486328,0.0000735721259554295
789,0.000173091888427734,0.0000722215488249023
790,0.000255107879638672,0.0000672424933346772
791,0.000253200531005859,0.0000786174193138733
792,0.000193595886230469,0.0000674956217926807
793,0.000194549560546875,0.0000529525463558263
794,0.000228404998779297,0.000058406226146489
795,0.000244140625,0.0000712548536778188
796,0.000161170959472656,0.0000650214281694232
797,0.000182628631591797,0.0000566323174429981
798,0.000193119049072266,0.0000749302219916619
799,0.000276088714599609,0.0000617628379603067
800,0.000223636627197266,0.0000625711380546735
801,0.000265598297119141,0.0000593695773668719
802,0.000254631042480469,0.0000475786959963471
803,0.000323772430419922,0.0000463624529204678
804,0.000279426574707031,0.0000675814694914827
805,0.000265121459960937,0.0000781533047505449
806,0.000302791595458984,0.0000712053761222327
807,0.000276565551757812,0.0000676066980687554
808,0.000313282012939453,0.0000708099166139472
809,0.000287532806396484,0.0000822789390588308
810,0.000211715698242187,0.0000845898904491459
811,0.000274181365966797,0.0000675444505327303
812,0.00029754638671875,0.0000624365411075455
813,0.0001983642578125,0.0000813073773621556
814,0.000203132629394531,0.0000611598261501503
815,0.000196933746337891,0.0000865640043430706
816,0.000213146209716797,0.0000596313416774829
817,0.000166416168212891,0.0000735458521272209
818,0.000178813934326172,0.0000634139639502925
819,0.000155925750732422,0.0000790931851202722
820,0.000166416168212891,0.0000662117197799676
821,0.000172138214111328,0.0000643376853907882
822,0.000139713287353516,0.0000605198219666689
823,0.000147819519042969,0.0000584052528959261
824,0.000145912170410156,0.0000515623931461459
825,0.000203609466552734,0.0000513026703017799
826,0.000209331512451172,0.0000546129489006645
827,0.000156402587890625,0.0000544210970992484
828,0.0001983642578125,0.0000657689653380076
829,0.000125885009765625,0.000071426959403262
830,0.000124931335449219,0.0000695283518688496
831,0.000169277191162109,0.0000737372816211312
832,0.000205516815185547,0.0000830354101220712
833,0.000133037567138672,0.0000879295994519005
834,0.000258445739746094,0.0000961226127157974
835,0.000202655792236328,0.0000790097731884729
836,0.000281810760498047,0.0000636340929531373
837,0.000180244445800781,0.0000924203413307939
838,0.000308513641357422,0.0000937248877143837
839,0.000301361083984375,0.0000619521399265736
840,0.000339031219482422,0.000062290703732088
841,0.000357627868652344,0.0000761507598025403
842,0.000266075134277344,0.0000657931609902447
843,0.000418186187744141,0.0000709766944364152
844,0.000328540802001953,0.000078929153887959
845,0.000380992889404297,0.0000737727340920018
846,0.000347137451171875,0.0000678936412505666
847,0.000442981719970703,0.0000680207830122113
848,0.000429630279541016,0.0000588164669546808
849,0.000468730926513672,0.0000644206824256766
850,0.000437736511230469,0.0000773138186466503
851,0.000442981719970703,0.0000910821383270165
852,0.000395298004150391,0.0000661447221090139
853,0.000383853912353516,0.0000560146680279271
854,0.000416278839111328,0.0000602185109647058
855,0.000460624694824219,0.000073208093158287
856,0.00035858154296875,0.0000755677832065807
857,0.000436782836914063,0.0000786029572142101
858,0.000500202178955078,0.0000791463502535717
859,0.000432491302490234,0.0000830928939712006
860,0.000337600708007812,0.0000673320407730421
861,0.000357151031494141,0.000075186197662002
862,0.000339508056640625,0.0000738004676243124
863,0.000397205352783203,0.0000663643586071274
864,0.000311851501464844,0.0000732267259132739
865,0.000362873077392578,0.0000790054563828829
866,0.000417709350585938,0.0000886045047709422
867,0.000287055969238281,0.0000679488767644489
868,0.000222682952880859,0.0000742336069313769
869,0.000296115875244141,0.0000786665705655105
870,0.000229358673095703,0.0000797701678633955
871,0.000246524810791016,0.0000677780033540017
872,0.000237941741943359,0.0000850549718216244
873,0.000124454498291016,0.000080190911510504
874,0.000245094299316406,0.0000960326833738259
875,0.000295639038085937,0.0000777039764194538
876,0.000203132629394531,0.0000666378862315299
877,0.000133037567138672,0.0000629623699629608
878,0.000319480895996094,0.0000469339553808757
879,0.000272750854492187,0.0000540500755682392
880,0.000288486480712891,0.0000687307462567415
881,0.000220298767089844,0.0000583624138035546
882,0.000143527984619141,0.0000613102079789941
883,0.000262260437011719,0.0000612267081185374
884,0.000307083129882812,0.0000805981755836516
885,0.000338077545166016,0.0000863220139456072
886,0.000387668609619141,0.0000851204413855687
887,0.000343799591064453,0.000069200556200871
888,0.000444412231445313,0.0000855334752074382
889,0.000325202941894531,0.0000685419206180281
890,0.000340461730957031,0.0000644065628238794
891,0.000407218933105469,0.0000727954042497187
892,0.000432968139648438,0.0000789262731041966
893,0.000398159027099609,0.0000758261045480579
894,0.000338554382324219,0.0000809977779401325
895,0.000447273254394531,0.0000629190198838325
896,0.000460147857666016,0.000071655790686162
897,0.000447273254394531,0.0000735211152412146
898,0.000596523284912109,0.0000748269788097154
899,0.000464439392089844,0.0000892182583887215
900,0.000654220581054688,0.0000871738663858825
901,0.000591278076171875,0.0000841411559956002
902,0.000479221343994141,0.0000787315765111648
903,0.000566959381103516,0.0000737218621856473
904,0.000660419464111328,0.000070067484614265
905,0.000481128692626953,0.000079169329523927
906,0.000448703765869141,0.0000801143190098471
907,0.000667095184326172,0.0000832104750893618
908,0.000395298004150391,0.000100710897693207
909,0.000433921813964844,0.0000848595997808298
910,0.000621795654296875,0.0000646145140698948
911,0.000501155853271484,0.000102696156509184
912,0.000444412231445313,0.000112797943821917
913,0.000455379486083984,0.000113707416998206
914,0.000499248504638672,0.0000804400401278088
915,0.000526905059814453,0.0000674922529912116
916,0.000382423400878906,0.000109173843326752
917,0.000504016876220703,0.0000942787978308317
918,0.000409126281738281,0.00012254622195594
919,0.000522136688232422,0.0000900553399622099
920,0.000366687774658203,0.0000916321727711816
921,0.000214099884033203,0.000112434521421549
922,0.000252246856689453,0.0000943728078797669
923,0.000264167785644531,0.0000832350640701098
924,0.000267505645751953,0.0000997558834327504
925,0.000211715698242187,0.0000972537410647404
926,0.000367641448974609,0.0000999994712285687
927,0.000241279602050781,0.000118618454650944
928,0.00011444091796875,0.00008070953120774
929,0.0000982284545898438,0.000116876668643825
930,0.000271320343017578,0.0000927788370531226
931,0.000199794769287109,0.000102965915421401
932,0.000179290771484375,0.00012967516161964
933,0.000114917755126953,0.0000912517328168734
934,0.0000734329223632813,0.0000914309605732427
935,0.000146865844726562,0.000107703993304625
936,0.00008392333984375,0.00011664298517773
937,0.000144481658935547,0.000120514401183476
938,0.000134944915771484,0.0000869832536989103
939,0.000203609466552734,0.000105243913009454
940,0.000126361846923828,0.000135941247770219
941,0.000049591064453125,0.000103687689094018
942,0.000108242034912109,0.0000982515992980158
943,0.000191211700439453,0.000133953055102443
944,0.000339508056640625,0.000142834817709725
945,0.0000910758972167969,0.000166215885389322
946,0.000124454498291016,0.000105593325056015
947,0.000226020812988281,0.000134380122427766
948,0.000340461730957031,0.000135193215535502
949,0.000195503234863281,0.000142946204793035
950,0.000349521636962891,0.000108758601241041
951,0.000353336334228516,0.000105330295355026
952,0.000456333160400391,0.000100801164716521
953,0.000203132629394531,0.0000802518495545713
954,0.000547409057617188,0.0000757766111649458
955,0.000202178955078125,0.0000944691312606761
956,0.00028228759765625,0.000116289624303554
957,0.000327587127685547,0.000122118731671152
958,0.000280857086181641,0.000133347406852786
959,0.000323772430419922,0.000147107161395987
960,0.000410079956054688,0.000149948417855042
961,0.000463962554931641,0.000121674790961233
962,0.000393390655517578,0.000144408462414609
963,0.000249385833740234,0.000145615794051106
964,0.000604152679443359,0.000143311581372324
965,0.000220775604248047,0.000164557878117662
966,0.000484943389892578,0.000152882648920217
967,0.000425815582275391,0.000141291927242556
968,0.00031280517578125,0.000125218563554152
969,0.000318527221679687,0.000142496942815565
970,0.000482082366943359,0.000204206591657294
971,0.000265121459960937,0.000141169571456629
972,0.000407695770263672,0.000151436154551033
973,0.000341415405273437,0.00013299226844211
974,0.000219821929931641,0.0000988330567019014
975,0.0003662109375,0.0000948054924056142
976,0.000476360321044922,0.000130785575872278
977,0.0004425048828125,0.000132845154948165
978,0.000336170196533203,0.000185204436185163
979,0.000123023986816406,0.000179670823854983
980,0.000306129455566406,0.000182269093557744
981,0.000123023986816406,0.000161714596294765
982,0.000507831573486328,0.000198070602199511
983,0.0000414848327636719,0.000177070382472394
984,0.000185012817382812,0.000150945888545582
985,0.000158309936523437,0.00017315952566362
986,0.0000481605529785156,0.000259469527698416
987,0.000254154205322266,0.000168220147874631
988,0.000231742858886719,0.000197555654544434
989,-0.000226497650146484,0.000225962458292373
990,-0.0000720024108886719,0.000205148623758095
991,0.0000796318054199219,0.000177362912540706
992,0.000354290008544922,0.000197964963312692
993,0.000245571136474609,0.000202785338340722
994,0.000145912170410156,0.000199634811172024
995,0.000219821929931641,0.000227514793929328
996,0.000030517578125,0.000201462429652079
997,-0.000332832336425781,0.000283496433498325
998,0.0000882148742675781,0.000263386821751643
999,0.000153541564941406,0.000338515427188454
1000,0.000121116638183594,0.000245478066149844
1001,-0.000148296356201172,0.000229516738227712
1002,-0.0000677108764648438,0.000183433001356875
1003,0.000113010406494141,0.000179726497290097
1004,0.000225067138671875,0.000228109646612836
1005,-0.000609874725341797,0.000339299041187
1006,0.000448226928710938,0.000343582267166568
1007,0.0000672340393066406,0.000212863867394932
1008,0.000151157379150391,0.000209734643647513
1009,-0.000174999237060547,0.000234495308416163
1010,-0.000132083892822266,0.0002345340904074
1011,0.000155448913574219,0.000250313621272476
1012,-0.000287055969238281,0.000219050499830829
1013,0.0000700950622558594,0.000352348782842813
1014,-0.0000824928283691406,0.000329375418035836
1015,-0.000206470489501953,0.00025404279961811
1016,-0.000197410583496094,0.000282558105352571
1017,-0.000373363494873047,0.000321222653163724
1018,-0.000271797180175781,0.000280062177169459
1019,0.000153541564941406,0.00042788423837026
1020,0.000264644622802734,0.00032592229624294
1021,-0.000170230865478516,0.000208848143174954
1022,0.000100135803222656,0.000262605267021114
1023,-0.000239849090576172,0.000323569763867535
1024,-0.000459671020507813,0.000350173833505351
1025,-0.000867366790771484,0.00039983414148724
1026,0.000121116638183594,0.000333944010805089
1027,-0.000422000885009766,0.000287143085732404
1028,0.000208854675292969,0.000340123636471665
1029,-0.000209331512451172,0.000365693999060268
1030,-0.000422954559326172,0.000365186290967183
1031,0.000247478485107422,0.00055613524098344
1032,-0.000641345977783203,0.000421260734237044
1033,-0.000836372375488281,0.000433459402333204
1034,-0.000171184539794922,0.00047888506767433
1035,-0.000290870666503906,0.000583972716294843
1036,-0.000927448272705078,0.000487595314785794
1037,-0.000451564788818359,0.000504622596185696
1038,-0.00127410888671875,0.000435677842262855
1039,-0.0000205039978027344,0.000607016511717331
1040,-0.000990390777587891,0.000511126729974935
1041,-0.000346660614013672,0.00066456800041902
1042,-0.00167083740234375,0.00050861517576128
1043,0.000196933746337891,0.000632296859856311
1044,-0.000942707061767578,0.000557794316480288
1045,-0.000643730163574219,0.000819742850786467
1046,-0.000603675842285156,0.000689806549731421
1047,-0.00148820877075195,0.000642366023553216
1048,-0.00101232528686523,0.000809543114494052
1049,0.000409126281738281,0.000997585273867629
1050,-0.000332355499267578,0.000652447067719225
1051,-0.00201702117919922,0.000466946058795055
1052,-0.00197267532348633,0.000618439963090328
1053,-0.000331401824951172,0.000736720662251051
1054,-0.00341224670410156,0.000747583344023031
1055,-0.0012812614440918,0.00077589479505764
1056,0,0.000770757670920536
1057,-0.000639915466308594,0.000876451083104488
1058,-0.000882148742675781,0.000931458152439329
1059,-0.00136184692382812,0.0012010421527813
1060,-0.00290346145629883,0.00094384275515054
1061,-0.00267648696899414,0.000806824253369817
1062,-0.00230646133422852,0.000757733704707955
1063,-0.000509738922119141,0.000778142141676149
1064,-0.0029759407043457,0.00115989381699058
1065,-0.000928401947021484,0.00145423544734273
1066,-0.0021519660949707,0.00126083679642042
1067,-0.000910282135009766,0.000971962106579046
1068,-0.00377988815307617,0.000994985375177069
1069,-0.00136709213256836,0.00143489420579748
1070,-0.00258111953735352,0.00153705320049627
1071,-0.0010986328125,0.0021174009715212
1072,0.000119209289550781,0.00120237418223604
1073,-0.00447940826416016,0.00112711232778123
1074,-0.000685214996337891,0.00120599951212462
1075,-0.000874042510986328,0.00100285191591924
1076,-0.00412559509277344,0.0012905634464752
1077,-0.00221061706542969,0.00185665669810479
1078,-0.00313329696655273,0.00188042521392671
1079,-0.00104427337646484,0.00126629563801041
1080,-0.00207805633544922,0.00152907989443723
1081,-0.00506925582885742,0.00229861388589673
1082,-0.00199270248413086,0.00251936424056708
1083,0.00193595886230469,0.00158349916856004
1084,-0.00415325164794922,0.00187633476828901
1085,-0.00322961807250977,0.00188938069972706
1086,0.000240325927734375,0.00196085829403861
1087,-0.000449180603027344,0.00252158125935761
1088,-0.00134897232055664,0.0028308241014374
1089,-0.00455665588378906,0.00280163999451379
1090,-0.00141000747680664,0.00251237711131438
1091,-0.00176858901977539,0.00219381909805005
1092,-0.000744342803955078,0.00249689930616348
1093,-0.00319051742553711,0.00210968968905083
1094,0.00618743896484375,0.00240542601745352
1095,0.000929832458496094,0.00209295860678225
1096,-0.00424098968505859,0.00324693263629648
1097,-0.00351762771606445,0.00295130384391226
1098,0.00134038925170898,0.00268007935642247
1099,-0.00585603713989258,0.00338346229285527
1100,-0.000823020935058594,0.00294561823161202
