Wavelength (nm),Absorbance (AU),Std.Dev.
190,0.955149650573731,0.380874398742141
191,1.5427098274231,0.734063264952773
192,1.69432592391968,0.745612983191096
193,1.76695013046265,0.79587866635719
194,1.21116971969605,0.677213529149042
195,1.70551156997681,1.04702074545171
196,1.17538642883301,0.523335461136366
197,1.40668201446533,0.531479729740467
198,1.74142408370972,0.768072459299495
199,1.97307109832764,0.747125840460879
200,2.24852180480957,0.878168092803849
201,2.01175498962402,0.426425830898894
202,2.11672925949097,0.351258549161974
203,3.34673500061035,0.734748907471968
204,3.35654401779175,0.604207355400704
205,3.1987452507019,0.379570133609225
206,3.69719171524048,0.557404218579861
207,3.26837062835693,0.268133547631091
208,3.29552793502808,0.0849033906221403
209,3.22441911697388,0.134255147313159
210,3.61975526809692,0.125377086253128
211,3.34375619888306,0.0761045500749742
212,3.21245670318604,0.0941078983895966
213,3.30226850509644,0.0742733403264722
214,3.21147632598877,0.0555772606517296
215,3.3861837387085,0.0715111187379236
216,3.16518831253052,0.0521924465370699
217,3.1843376159668,0.0719465480122155
218,3.30372858047485,0.0732975051517759
219,3.0557656288147,0.0422553752662499
220,2.98541831970215,0.0263558822696642
221,2.9082818031311,0.0205234286479256
222,2.80227899551392,0.022254994849721
223,2.78400945663452,0.018852257043507
224,2.73722553253174,0.021760723802716
225,2.64502477645874,0.0234394072710289
226,2.49427652359009,0.0139106606336042
227,2.37665367126465,0.00858754020359451
228,2.27608489990234,0.00703706500875573
229,2.19751787185669,0.00502697789328901
230,2.10295343399048,0.0034663320955156
231,2.01088571548462,0.00445932726015816
232,1.94235372543335,0.00285930327549597
233,1.86709022521973,0.00161379278861642
234,1.80663537979126,0.00159302780908098
235,1.74921560287476,0.00117836486331304
236,1.700852394104,0.00109542271737039
237,1.66188764572144,0.00110930976709466
238,1.62855243682861,0.0011830974693516
239,1.60573577880859,0.0008654740229868
240,1.58610200881958,0.000530366402936999
241,1.5776309967041,0.000982090088197695
242,1.57235670089722,0.00107197744461051
243,1.57598781585693,0.000662583376281506
244,1.5874342918396,0.00107056473105841
245,1.60711431503296,0.00117244706495963
246,1.63735723495483,0.00120809721866424
247,1.66904020309448,0.00193013126853687
248,1.71480751037598,0.00302801432412223
249,1.76739692687988,0.00301120517176367
250,1.82478523254395,0.00307350042692771
251,1.89636135101318,0.00559063373904028
252,1.96141862869263,0.00636743252522634
253,2.04766464233398,0.00753679152364899
254,2.11808395385742,0.00744403742532377
255,2.18408012390137,0.00748720030527132
256,2.26877880096436,0.0114622658425878
257,2.39617967605591,0.0183658020457571
258,2.45262002944946,0.014789663456769
259,2.48645114898682,0.0110193392396444
260,2.57995939254761,0.0203268147426745
261,2.59991121292114,0.0243260130997679
262,2.60356664657593,0.0369677602163041
263,2.7059121131897,0.0428284174155183
264,2.70952129364014,0.0318741457955587
265,2.70038509368897,0.0340188739225593
266,2.66681671142578,0.0256289520937709
267,2.6592264175415,0.0296120538229478
268,2.59401941299439,0.0301308504177423
269,2.48832368850708,0.0227732302098467
270,2.42248392105103,0.0149686776400352
271,2.33770561218262,0.0158963483707822
272,2.23344421386719,0.0108553389040116
273,2.15359115600586,0.00778682782286313
274,2.01788902282715,0.00790964760734443
275,1.83167600631714,0.00559130004423769
276,1.64561319351196,0.0027155929327587
277,1.44434881210327,0.00114331511016593
278,1.26909923553467,0.00100256166326753
279,1.11942911148071,0.000777824162349422
280,0.997148990631104,0.000284738468940967
281,0.895230770111084,0.000403177589975524
282,0.815147399902344,0.000226187744946827
283,0.74771785736084,0.000207861625372325
284,0.692238807678223,0.00017868609627064
285,0.647265434265137,0.000192070102028696
286,0.610286712646484,0.000163370840477205
287,0.579998970031738,0.000189510228704441
288,0.55381965637207,0.000190123532018694
289,0.53331995010376,0.000207234986953742
290,0.516083240509033,0.000179148678577775
291,0.501593112945557,0.000214761019080067
292,0.489875793457031,0.000242094315446792
293,0.480451107025147,0.00017147849195459
294,0.473323345184326,0.000208647725592835
295,0.467339992523193,0.000238159038420478
296,0.46277379989624,0.000183660936236736
297,0.459445476531982,0.000242180705936564
298,0.457045078277588,0.000202057460051805
299,0.455501556396484,0.000260721372370024
300,0.454782485961914,0.0001715686335636
301,0.455157279968262,0.000160194577015656
302,0.456563949584961,0.00025087979460589
303,0.457621097564697,0.000235918286213036
304,0.459447860717773,0.000259595684522233
305,0.462467670440674,0.000241567793911263
306,0.464907646179199,0.000201137125673664
307,0.467996120452881,0.000257922624960431
308,0.472520351409912,0.000296093990604509
309,0.475878715515137,0.000292011275911432
310,0.479313373565674,0.000202942253055112
311,0.483837127685547,0.000209799679663727
312,0.488502979278564,0.000210128886119144
313,0.492328643798828,0.000246409955745219
314,0.496094703674316,0.000229143946293055
315,0.500632762908936,0.000290524949536756
316,0.504703998565674,0.000187270167673242
317,0.508612632751465,0.000154803991863953
318,0.512097835540772,0.000155238143228001
319,0.515845775604248,0.000267715932433081
320,0.51933765411377,0.000331269725021653
321,0.522221088409424,0.000378434503870845
322,0.524635791778564,0.000280503485967251
323,0.526356220245361,0.000225515242796886
324,0.528594970703125,0.000268624849257592
325,0.530271053314209,0.000233543137911013
326,0.531365871429443,0.000320911053208132
327,0.531566619873047,0.00039941538108664
328,0.531535625457764,0.000261897790042045
329,0.530924320220947,0.000220114973940546
330,0.529891490936279,0.000312985391573726
331,0.528434276580811,0.000385142762985828
332,0.526198863983154,0.000276499773292913
333,0.523715019226074,0.000247169128548634
334,0.520959854125977,0.000244587251310889
335,0.51766300201416,0.000211891754081471
336,0.513297557830811,0.000268001148483382
337,0.509828567504883,0.00024475081008563
338,0.504870891571045,0.000199816959760255
339,0.499550342559814,0.000236049324102859
340,0.493565559387207,0.000213712435140384
341,0.487860202789307,0.000268773780664
342,0.481527805328369,0.000247698430720911
343,0.474836349487305,0.000260295442340576
344,0.467605113983154,0.000216523977626015
345,0.459742069244385,0.000197978745494576
346,0.452539920806885,0.000240386470858584
347,0.444600105285645,0.000240303220130249
348,0.436228275299072,0.000256834249527175
349,0.42771053314209,0.000257322467475882
350,0.418955802917481,0.000214120591995196
351,0.410170555114746,0.000196836161046508
352,0.400529384613037,0.000196970111916071
353,0.391003131866455,0.000196711366172957
354,0.382186889648437,0.000173122755298733
355,0.372655391693115,0.000154604108151415
356,0.363106250762939,0.000274797245435253
357,0.353315353393555,0.000309384647960092
358,0.343715667724609,0.000378943662664418
359,0.333485126495361,0.000267566412213413
360,0.324074745178223,0.000309131731313182
361,0.314136981964111,0.000333278815615581
362,0.303441047668457,0.000291843039717639
363,0.294591426849365,0.000394613792028046
364,0.285946846008301,0.000299186344187852
365,0.277470111846924,0.000299186344187852
366,0.269032001495361,0.000216838781338249
367,0.261780261993408,0.000306650413672812
368,0.254889965057373,0.000237688855196727
369,0.246810436248779,0.00025712446181038
370,0.238814353942871,0.000226557372401026
371,0.231022357940674,0.000151322001396152
372,0.223816871643066,0.000153781277259293
373,0.215871810913086,0.000193212627767886
374,0.208190441131592,0.000150205975469956
375,0.201136112213135,0.000125258505101589
376,0.194021701812744,0.000193071359468113
377,0.186479091644287,0.000140374898783979
378,0.180244922637939,0.000204433609115208
379,0.173456192016602,0.000154082606724706
380,0.166866779327393,0.000175227113004392
381,0.160336017608643,0.000151799070366452
382,0.154771327972412,0.000167447938658431
383,0.148954391479492,0.000203170683255892
384,0.142879009246826,0.000227606718294926
385,0.137324333190918,0.000166753983496663
386,0.131879806518555,0.000201688026495119
387,0.126320838928223,0.000160577346752163
388,0.121361255645752,0.000159628672423134
389,0.116209983825684,0.000172607147710278
390,0.111425399780273,0.000167976675844604
391,0.107187271118164,0.000195128383878466
392,0.102866649627686,0.000225688593593232
393,0.0981621742248535,0.000237639106677509
394,0.0938601493835449,0.000194179894289038
395,0.090022087097168,0.000194446686117568
396,0.0863909721374512,0.000162634328839149
397,0.0826292037963867,0.000179635386321581
398,0.0790529251098633,0.000153334104280594
399,0.0752272605895996,0.000187255597331972
400,0.0719337463378906,0.00019063470117857
401,0.0689158439636231,0.000155276220149772
402,0.0659689903259277,0.00021279976786001
403,0.0632734298706055,0.000211005695730215
404,0.0600461959838867,0.000208298713972937
405,0.0571532249450684,0.000172200944412638
406,0.0543661117553711,0.000172996626142072
407,0.0521082878112793,0.000204811412365549
408,0.0501751899719238,0.000243607326020142
409,0.0474772453308106,0.000208625929471974
410,0.0452194213867188,0.000202264407830814
411,0.043118953704834,0.000175232303304093
412,0.0410089492797852,0.000225478943205583
413,0.0386981964111328,0.000250117339596336
414,0.0369758605957031,0.000178792952260191
415,0.0349483489990234,0.000191539022865098
416,0.0336604118347168,0.00020695391877394
417,0.0322599411010742,0.000225539439278721
418,0.030451774597168,0.000240666284692533
419,0.0288205146789551,0.000185091454222994
420,0.0275182723999023,0.000185939591247255
421,0.0258927345275879,0.000156861307089304
422,0.0244226455688477,0.000140801866142627
423,0.0233407020568848,0.00014147526250874
424,0.021873950958252,0.00018650124764892
425,0.0211296081542969,0.000137233038258329
426,0.0197510719299316,0.000161801745944022
427,0.0189805030822754,0.00018837421608164
428,0.0178332328796387,0.000159023583731459
429,0.0171971321105957,0.000175175201549245
430,0.0161657333374023,0.000128452531619912
431,0.0148906707763672,0.000125200404093024
432,0.0140590667724609,0.000136861402093554
433,0.0135021209716797,0.000123639746632705
434,0.0127091407775879,0.000113687418859323
435,0.0117926597595215,0.000149081595199491
436,0.0117030143737793,0.000170683725900246
437,0.0106601715087891,0.000170617106175337
438,0.00994205474853516,0.000143378201774794
439,0.00947237014770508,0.000114506464307084
440,0.00890350341796875,0.000143479659097136
441,0.00882768630981445,0.000205706466827582
442,0.00793123245239258,0.00018021669123672
443,0.00752401351928711,0.000135619730695625
444,0.00693798065185547,0.000120155394785018
445,0.00657176971435547,0.000103740304636525
446,0.00622034072875977,0.000136345413213055
447,0.00564479827880859,0.000160205931488294
448,0.00546598434448242,0.000120444573313326
449,0.00523090362548828,0.000136578681840772
450,0.00491476058959961,0.000159827962787168
451,0.00432062149047852,0.000134660704602154
452,0.00411510467529297,0.000129790835062566
453,0.0037837028503418,0.000116979730222272
454,0.00345849990844727,0.0000992714956120868
455,0.00352954864501953,0.000115952835999423
456,0.00296258926391602,0.000128682438720984
457,0.00286197662353516,0.000122772373490467
458,0.00280618667602539,0.000106790233942673
459,0.00234746932983398,0.0000911794443331738
460,0.00201511383056641,0.0000845105586264069
461,0.00223112106323242,0.0000933651539341238
462,0.00178909301757812,0.000100319557527275
463,0.00186872482299805,0.000137497877677271
464,0.00174331665039062,0.000127271758998514
465,0.00167512893676758,0.000114210214135284
466,0.00157737731933594,0.000135159574502922
467,0.00114822387695312,0.000107579366423402
468,0.00115823745727539,0.000128689506272203
469,0.000941276550292969,0.0000909997212063999
470,0.000702381134033203,0.0000744263225018408
471,0.000743865966796875,0.0000991408555644949
472,0.0007171630859375,0.0000966039602443503
473,0.000811576843261719,0.000117298064129042
474,0.000536441802978516,0.000131496438241144
475,0.000628471374511719,0.000123959319885411
476,0.000396251678466797,0.000119266496283443
477,0.000364303588867187,0.000119576841210675
478,0.000514507293701172,0.000130137238489656
479,0.000352859497070312,0.000142397978834067
480,0.000275611877441406,0.0000997102869940247
481,0.0000634193420410156,0.000110090537267406
482,0.000180244445800781,0.000104613334458059
483,0.00012969970703125,0.00014671094578169
484,-0.0000271797180175781,0.000122716801098937
485,0.000796794891357422,0.000121150425080606
486,0.000570774078369141,0.0000829436272288949
487,-0.000385761260986328,0.000101356782722599
488,-0.000346183776855469,0.000113485240117187
489,-0.000194072723388672,0.0000836723540996222
490,-0.0000767707824707031,0.0000962148212179171
491,0.00000429153442382813,0.000105308706411522
492,-0.000146389007568359,0.000102791316257002
493,-0.0000824928283691406,0.0000806982616812135
494,-0.000174999237060547,0.0000881284857795136
495,-0.000208854675292969,0.0000939962035423405
496,-0.000141143798828125,0.0000772329010304401
497,-0.000189781188964844,0.0000622943538275311
498,-0.000288486480712891,0.000105336771175263
499,-0.000209808349609375,0.000122077762853237
500,-0.000243186950683594,0.0000973308625959249
501,-0.000138282775878906,0.0000819341672775249
502,-0.0000820159912109375,0.0000665508213620141
503,-0.000219345092773437,0.0000814442891411388
504,-0.000250339508056641,0.0000702004062777176
505,-0.000206470489501953,0.000104254095524048
506,-0.000261783599853516,0.000102341296579714
507,-0.000133991241455078,0.0000971742185003689
508,-0.000174999237060547,0.0000850121889728946
509,-0.000377655029296875,0.0000847671097263379
510,-0.000119209289550781,0.0000867398116231327
511,-0.000144481658935547,0.0000692186253037417
512,-0.000209331512451172,0.0000729841290597387
513,-0.000204563140869141,0.0000984642753535485
514,-0.0000958442687988281,0.000114054823306418
515,-0.000132560729980469,0.0000862165888770261
516,-0.0001220703125,0.0000832500870941596
517,-0.000141143798828125,0.0000761477739080618
518,-0.0000944137573242188,0.0000984065284273724
519,-0.0000720024108886719,0.0000942932670159018
520,-0.0000662803649902344,0.0000847013670566202
521,-0.0000257492065429687,0.000077262335423456
522,-0.000113964080810547,0.0000797145664707023
523,-0.000124454498291016,0.000101062483152305
524,-0.000140190124511719,0.000125182241997607
525,-0.000072479248046875,0.0001052979102799
526,0.0000605583190917969,0.000102383500552012
527,0.0000243186950683594,0.0000904106389325072
528,-0.0000200271606445312,0.0000898100983335015
529,0.000202655792236328,0.0000842640204164343
530,0.00000095367431640625,0.0000906316798865728
531,0.000108718872070312,0.0000970782370038264
532,0.000237941741943359,0.0000706893999494685
533,0.000191688537597656,0.0000808221400471963
534,0.000136852264404297,0.0000909797300547513
535,0.000139713287353516,0.0000936909179918812
536,0.0000452995300292969,0.0000813828470378489
537,0.0001373291015625,0.000077410808136244
538,0.000155448913574219,0.0000948198812189526
539,0.000222682952880859,0.0000951717276030891
540,0.000213623046875,0.0000847523556069514
541,0.0000438690185546875,0.0000730448538088131
542,0.000217914581298828,0.0000609186296936062
543,0.000146865844726562,0.0000964720647816889
544,0.000219345092773437,0.000084281557855334
545,0.000231266021728516,0.0000758905474942504
546,0.00017547607421875,0.0000765735746999581
547,0.000217914581298828,0.0000939986224778002
548,0.000272274017333984,0.0000963753840036761
549,0.000134468078613281,0.0000758096103439606
550,0.000355243682861328,0.0000962549870238463
551,0.000207901000976562,0.0000823176182573281
552,0.000332355499267578,0.0000896453857421875
553,0.000328540802001953,0.0000944691312606761
554,0.000304698944091797,0.0000616117157002202
555,0.00034332275390625,0.0000822554463860251
556,0.000418663024902344,0.0000877147104518284
557,0.000283718109130859,0.0000824225131556475
558,0.000356674194335937,0.0000704461343171077
559,0.000346660614013672,0.0000813590956163069
560,0.000486850738525391,0.0000956507289699601
561,0.000298976898193359,0.0000813828470378489
562,0.000250816345214844,0.0000776644633159726
563,0.000481128692626953,0.0000696084263842768
564,0.000398159027099609,0.0000735875767664354
565,0.000261783599853516,0.0000728531653799021
566,0.000381946563720703,0.0000942836211392446
567,0.000462055206298828,0.0000793486259912454
568,0.000521183013916016,0.0000644083279433783
569,0.000548839569091797,0.000076283513786523
570,0.000557422637939453,0.0000856861911496678
571,0.000548839569091797,0.000075240612512031
572,0.000471115112304688,0.0000563071800961514
573,0.000496387481689453,0.0000629117919665331
574,0.000636100769042969,0.0000854257461972123
575,0.000392913818359375,0.000061659672615789
576,0.000501632690429688,0.0000785682373138682
577,0.000585556030273438,0.0000878157478834671
578,0.000772953033447266,0.0000805939438567614
579,0.00026702880859375,0.0000742581064722853
580,0.000723838806152344,0.0000667725272980313
581,0.000514984130859375,0.000079051490155985
582,0.000876426696777344,0.0000679455304357791
583,0.0000143051147460937,0.0000698122821079907
584,0.000646114349365234,0.0000700041772098493
585,0.000770092010498047,0.0000503678645939836
586,0.000415325164794922,0.0000685303091068467
587,0.000613689422607422,0.0000774431109729338
588,0.000505447387695313,0.0000602694628484721
589,0.000463008880615234,0.0000589795715532591
590,0.000588417053222656,0.0000645440971853422
591,0.000474452972412109,0.0000757135727942802
592,0.000662803649902344,0.0000708436245406632
593,0.000771999359130859,0.0000538868185095902
594,0.000412940979003906,0.0000749969506676054
595,0.000676631927490234,0.0000853645062322751
596,0.000444412231445313,0.0000800873523758785
597,0.000507831573486328,0.0000852912268180659
598,0.000515460968017578,0.0000694792811083654
599,0.000737190246582031,0.0000817215980944977
600,0.000430107116699219,0.0000706073311191431
601,0.000580787658691406,0.000071869658306158
602,0.000555515289306641,0.0000622267924032586
603,0.000540733337402344,0.000078691134678698
604,0.000514984130859375,0.0000618309063406199
605,0.000433444976806641,0.0000670443896969557
606,0.000587940216064453,0.0000618382605965294
607,0.000566959381103516,0.0000795861073103976
608,0.000686168670654297,0.0000494774562468561
609,0.000477790832519531,0.0000604220607043012
610,0.000735759735107422,0.0000587855322866431
611,0.00051116943359375,0.0000688381781420194
612,0.000509262084960938,0.0000537241234091017
613,0.000523090362548828,0.00005795288224042
614,0.000551700592041016,0.0000532330547409126
615,0.000554084777832031,0.0000674012317050347
616,0.000457763671875,0.0000694416367088224
617,0.000442028045654297,0.0000638374371741931
618,0.000514030456542969,0.0000472056745125138
619,0.000357627868652344,0.0000553654965252542
620,0.000555992126464844,0.0000646514522317398
621,0.000386238098144531,0.0000596094129562531
622,0.000516891479492188,0.0000738820670147071
623,0.000344276428222656,0.000098170568946792
624,0.000505924224853516,0.0000814666202349926
625,0.00048065185546875,0.0000729607599294097
626,0.000395298004150391,0.0000721869094352154
627,0.000547409057617188,0.0000876680385165091
628,0.000590801239013672,0.0000898632486450486
629,0.000504970550537109,0.0000608766255310627
630,0.000607013702392578,0.0000466545624244624
631,0.000451087951660156,0.00006683039059239
632,0.000535488128662109,0.0000757721101634173
633,0.000546455383300781,0.0000572244324893959
634,0.000460147857666016,0.0000876732255140297
635,0.000374317169189453,0.0000865193397047278
636,0.000482082366943359,0.0000666412982223277
637,0.000487804412841797,0.0000550803681127772
638,0.000432968139648438,0.0000622231383445689
639,0.000542640686035156,0.0000742657609213457
640,0.000460624694824219,0.0000677813579533927
641,0.00046539306640625,0.000105647143738756
642,0.000389575958251953,0.0000875538468252145
643,0.000445842742919922,0.0000742596374252171
644,0.000418663024902344,0.0000874551067380255
645,0.000445842742919922,0.000102888597916805
646,0.000575065612792969,0.0000878649291583366
647,0.000439643859863281,0.0000837456925402524
648,0.000387668609619141,0.0000930480242322608
649,0.000364303588867187,0.0000947263148638841
650,0.000409126281738281,0.0000735381227442055
651,0.00046539306640625,0.0000917388097963767
652,0.000557422637939453,0.0000962337248619362
653,0.000497341156005859,0.0000644577316648219
654,0.000551223754882813,0.0000792898614326281
655,0.000346183776855469,0.00009228985795906
656,0.00293874740600586,0.0000625547836250596
657,-0.00132942199707031,0.0000618069989655034
658,0.0000147819519042969,0.0000786550083283633
659,0.000391960144042969,0.0000707247727891413
660,0.000397205352783203,0.000071426959403262
661,0.000499725341796875,0.0000652047571662758
662,0.000414848327636719,0.0000614972059824451
663,0.000376701354980469,0.0000660019109406454
664,0.000438213348388672,0.0000617002224302801
665,0.000385284423828125,0.000103135809904152
666,0.000362396240234375,0.0000878442246092047
667,0.000348567962646484,0.0000860502824776555
668,0.000460147857666016,0.0000588975931545566
669,0.000331878662109375,0.0000693695644146665
670,0.00043487548828125,0.0000597484760583604
671,0.000414848327636719,0.0000587303895481192
672,0.000441074371337891,0.0000731475039254939
673,0.000410079956054688,0.0000860383911484013
674,0.000408649444580078,0.0000889553745019117
675,0.00042724609375,0.0000781649412002279
676,0.000431060791015625,0.000050810573681274
677,0.000464439392089844,0.0000497181346450276
678,0.000431537628173828,0.0000763773462302243
679,0.000360965728759766,0.0000593982939304879
680,0.000453472137451172,0.00006114867204334
681,0.000482559204101563,0.0000547916811543022
682,0.000389575958251953,0.0000660225774407679
683,0.000498294830322266,0.0000611375159015419
684,0.000585556030273438,0.0000687704329579161
685,0.000470638275146484,0.000061576646642143
686,0.000476837158203125,0.0000740480667088179
687,0.000495433807373047,0.0000620273323799672
688,0.000607490539550781,0.0000431926036146436
689,0.000550270080566406,0.0000496803909700425
690,0.000606060028076172,0.0000644400918265931
691,0.000542640686035156,0.0000606211764101559
692,0.000646114349365234,0.0000623691337079714
693,0.000554561614990234,0.0000574732204596328
694,0.00057220458984375,0.0000597465732709502
695,0.000576496124267578,0.0000754397978280967
696,0.000543594360351563,0.000065291875764793
697,0.000552654266357422,0.0000781402116733283
698,0.000535011291503906,0.0000840208181057615
699,0.000523090362548828,0.0000987317791473558
700,0.000487804412841797,0.0000876057705913877
701,0.000477313995361328,0.0000586170393013875
702,0.000528335571289063,0.0000696329205823433
703,0.000440597534179688,0.000056842709425977
704,0.000452518463134766,0.0000566363322110056
705,0.000397682189941406,0.0000545619238350174
706,0.000304698944091797,0.0000621737875330946
707,0.000393390655517578,0.0000661292514686178
708,0.000334739685058594,0.0000639121903813167
709,0.000304698944091797,0.0000653858334760603
710,0.000275611877441406,0.0000510794765606607
711,0.000355243682861328,0.0000621115862882709
712,0.000335216522216797,0.0000690673563327786
713,0.000331878662109375,0.0000660982993248821
714,0.000365734100341797,0.00006793549046078
715,0.000310897827148437,0.0000754397978280967
716,0.000451564788818359,0.0000658708725347038
717,0.000376224517822266,0.0000527557340415512
718,0.000379085540771484,0.0000659726223166425
719,0.000426292419433594,0.0000714587853458489
720,0.000456333160400391,0.0000620108345299105
721,0.000454425811767578,0.000078614527106779
722,0.000561237335205078,0.0000795532455798437
723,0.000455379486083984,0.0000823314278529993
724,0.000447273254394531,0.0000524434169192029
725,0.000555515289306641,0.0000624529265011112
726,0.000571250915527344,0.0000582659106857766
727,0.000581264495849609,0.0000717017864174033
728,0.000557899475097656,0.00006114867204334
729,0.000596523284912109,0.0000647884667387453
730,0.000640869140625,0.0000679823309916565
731,0.000577926635742188,0.0000678517662288504
732,0.000584602355957031,0.000054600457375135
733,0.000577449798583984,0.000096495630765083
734,0.000560760498046875,0.0000771342139735867
735,0.000498771667480469,0.0000750484730984202
736,0.000520706176757813,0.0000750257469757726
737,0.000561714172363281,0.0000646039564302061
738,0.000495433807373047,0.0000658484319532549
739,0.000487804412841797,0.0000662323208133784
740,0.000469684600830078,0.0000670850740332594
741,0.000460624694824219,0.0000680257968907433
742,0.000450611114501953,0.0000708018885517677
743,0.000459194183349609,0.0000672982632848259
744,0.000448703765869141,0.0000532938858294189
745,0.000366687774658203,0.0000713983039254944
746,0.000366687774658203,0.0000763282102887388
747,0.000393867492675781,0.0000834832791622727
748,0.000356674194335937,0.0000743315566450114
749,0.000440120697021484,0.0000820243077164644
750,0.00048065185546875,0.000074725114396265
751,0.000455856323242188,0.0000683359389066478
752,0.000396728515625,0.0000582190637148371
753,0.000441551208496094,0.0000592967664974587
754,0.000477313995361328,0.0000628304206021685
755,0.000477790832519531,0.0000653545292477967
756,0.00051116943359375,0.0000502492255243511
757,0.000571727752685547,0.0000731506122864397
758,0.000537872314453125,0.000068961930045284
759,0.000537872314453125,0.0000585190133704467
760,0.000611305236816406,0.0000616061798076981
761,0.000547885894775391,0.0000565610078895901
762,0.000544548034667969,0.0000604230014695726
763,0.000579833984375,0.0000583877316116845
764,0.000589847564697266,0.0000726171486694392
765,0.000629901885986328,0.0000620200005439629
766,0.000566005706787109,0.0000560217711442876
767,0.000531673431396484,0.0000519336744136944
768,0.000577926635742188,0.0000386142424519484
769,0.00060272216796875,0.0000503034952464312
770,0.000558853149414063,0.0000579901427813849
771,0.00058746337890625,0.000050629014706088
772,0.000580787658691406,0.0000640951446515906
773,0.00051116943359375,0.0000653353915023951
774,0.000523090362548828,0.000053074781818357
775,0.000538825988769531,0.0000638356562689975
776,0.000565528869628906,0.0000652326477764017
777,0.000514984130859375,0.0000846033291481662
778,0.000469684600830078,0.0000854603406786567
779,0.000464439392089844,0.0000559252947471838
780,0.000489234924316406,0.0000499906397918307
781,0.000425815582275391,0.000051060554731317
782,0.000413417816162109,0.000052366403472867
783,0.000390529632568359,0.0000607008270994521
784,0.000431537628173828,0.0000509379494809169
785,0.000367641448974609,0.0000583633877684894
786,0.000437259674072266,0.0000677478044846996
787,0.000390529632568359,0.0000680976219163688
788,0.000402450561523438,0.0000749742089275211
789,0.000357151031494141,0.0000733942078431644
790,0.000376224517822266,0.0000735473979063467
791,0.000407218933105469,0.0000741447282338162
792,0.000432968139648438,0.0000683159722330568
793,0.000436782836914063,0.000064417152815372
794,0.000391960144042969,0.0000675107793190064
795,0.000492572784423828,0.0000659157307783561
796,0.000392436981201172,0.0000547595108793472
797,0.000391483306884766,0.0000629388923764312
798,0.000351428985595703,0.0000732996585989565
799,0.000514030456542969,0.0000622340998769968
800,0.000504016876220703,0.0000671883691739123
801,0.000448703765869141,0.0000593647899224142
802,0.000510215759277344,0.0000538984207959793
803,0.000442981719970703,0.000050070172212976
804,0.000539302825927734,0.0000735813968313611
805,0.000465869903564453,0.0000686281160540715
806,0.000503063201904297,0.0000615341678838363
807,0.000504970550537109,0.0000670715153298652
808,0.000501155853271484,0.0000735288464120659
809,0.000451087951660156,0.0000770575339223882
810,0.000360965728759766,0.00008017389727823
811,0.000447750091552734,0.0000641412447920201
812,0.000509262084960938,0.0000636215857256043
813,0.000389575958251953,0.0000853991255215279
814,0.000397682189941406,0.0000686281160540715
815,0.000394344329833984,0.0000941629643096705
816,0.000414848327636719,0.0000780470420011174
817,0.000293254852294922,0.0000688827544393324
818,0.000390052795410156,0.0000706105513016234
819,0.000313282012939453,0.000073842048392526
820,0.000418186187744141,0.0000718981259227379
821,0.000362873077392578,0.000069822052212595
822,0.000316143035888672,0.0000690690023416761
823,0.000418186187744141,0.0000579126531910376
824,0.000336647033691406,0.0000532992185776465
825,0.000372409820556641,0.0000541068365196981
826,0.000405788421630859,0.0000692071273295727
827,0.000414848327636719,0.0000709638792888093
828,0.000328540802001953,0.0000713170508783815
829,0.000287532806396484,0.0000703653974368924
830,0.000341415405273437,0.0000630742197671143
831,0.000417232513427734,0.000074482818872136
832,0.000330924987792969,0.0000804697141970059
833,0.000452518463134766,0.000095548457948816
834,0.000496387481689453,0.0000971976142436958
835,0.000371456146240234,0.000072430606883428
836,0.000550746917724609,0.0000551432847093829
837,0.000407218933105469,0.000100606990492862
838,0.000474452972412109,0.0000920752673771646
839,0.000482082366943359,0.0000642651961854227
840,0.000496387481689453,0.0000705912280032999
841,0.000546932220458984,0.0000805854797363281
842,0.000554561614990234,0.0000699733143919492
843,0.000586032867431641,0.0000774152138622165
844,0.000559806823730469,0.000101213109691479
845,0.000551223754882813,0.0000840816846320078
846,0.000554561614990234,0.0000664140190767225
847,0.00060272216796875,0.0000709991153788303
848,0.000639438629150391,0.0000635554352061963
849,0.000689029693603516,0.0000615341678838363
850,0.000634193420410156,0.0000690887513896421
851,0.000668048858642578,0.0000891162596605199
852,0.000635147094726563,0.0000798200335729997
853,0.000614643096923828,0.0000722089546058119
854,0.000650882720947266,0.0000579989641402749
855,0.000646114349365234,0.0000800504359452003
856,0.000596523284912109,0.0000687786981382786
857,0.000629901885986328,0.0000685103990805384
858,0.000630855560302734,0.0000687737391492575
859,0.000688076019287109,0.0000985981179701257
860,0.000522613525390625,0.0000802235120361897
861,0.000516891479492188,0.0000780004154316501
862,0.000497817993164063,0.0000741784533791735
863,0.000521659851074219,0.0000762387910801014
864,0.000510215759277344,0.0000823452351327511
865,0.000501632690429688,0.0000810188289002666
866,0.000558376312255859,0.0000827199092648718
867,0.000459671020507813,0.0000628973336401218
868,0.000470638275146484,0.0000739558906564376
869,0.000479221343994141,0.0000722892051603267
870,0.000407695770263672,0.0000749984665384211
871,0.000379085540771484,0.0000676571270009535
872,0.000426292419433594,0.0000796318054199219
873,0.000420570373535156,0.0000764725501889399
874,0.000409126281738281,0.0000862205446434692
875,0.000412464141845703,0.0000847858839832034
876,0.000446796417236328,0.0000643076388072327
877,0.000311374664306641,0.0000591105005099445
878,0.000429630279541016,0.0000639744179964005
879,0.000461101531982422,0.0000567035373186078
880,0.000439167022705078,0.0000653301711443106
881,0.000362873077392578,0.000059030629871324
882,0.000384807586669922,0.0000682577027412091
883,0.00052642822265625,0.0000704751769517605
884,0.000514030456542969,0.0000905814906702494
885,0.000605583190917969,0.000102250165497327
886,0.000504016876220703,0.0000895387949222479
887,0.000543117523193359,0.0000685369444969772
888,0.000584125518798828,0.000083767410117859
889,0.000617027282714844,0.0000662975151871706
890,0.000611305236816406,0.0000729373833116139
891,0.000636100769042969,0.0000904232125559506
892,0.000645160675048828,0.0000879968061403067
893,0.000626564025878906,0.0000930968837316541
894,0.000621795654296875,0.0000865272233750439
895,0.000685214996337891,0.0000622012094845594
896,0.00069427490234375,0.0000755045704867471
897,0.000692367553710938,0.0000704816292453838
898,0.000812530517578125,0.000071951867357053
899,0.000628471374511719,0.0000838908219194384
900,0.000830650329589844,0.0000859127711823929
901,0.000767707824707031,0.0000659519401627354
902,0.000748634338378906,0.0000782884716624853
903,0.000677585601806641,0.0000810300538428441
904,0.000811100006103516,0.0000917957973543788
905,0.000782012939453125,0.0000823742228870924
906,0.000771045684814453,0.0000846610912461976
907,0.000805854797363281,0.0000701534261812548
908,0.000670909881591797,0.0000937709697973774
909,0.000720024108886719,0.0000756760250237067
910,0.000856399536132813,0.0000698090251025954
911,0.000658035278320313,0.0000921887912965406
912,0.000632286071777344,0.0000922159176150023
913,0.000713825225830078,0.000101589818034921
914,0.000743389129638672,0.00007381741076465
915,0.000676155090332031,0.0000623034781305736
916,0.000576019287109375,0.000108670759430357
917,0.000737190246582031,0.0000954246349437637
918,0.000576496124267578,0.000133388323517405
919,0.000567913055419922,0.000107053924435495
920,0.000595569610595703,0.000101924988256076
921,0.000483036041259766,0.000105341088167588
922,0.000379085540771484,0.0000969235305517323
923,0.000428676605224609,0.0000867896026035573
924,0.00045013427734375,0.0000849078154664137
925,0.000515937805175781,0.0000963022194654856
926,0.000519752502441406,0.000119816188890044
927,0.000507831573486328,0.0000996007703764796
928,0.000369071960449219,0.0000739051448242768
929,0.000370979309082031,0.000113224478664467
930,0.000433444976806641,0.000112450698468706
931,0.000346183776855469,0.000118618454650944
932,0.000416755676269531,0.0000957600142576511
933,0.000404834747314453,0.0000738620604138885
934,0.000308036804199219,0.0000909772308519254
935,0.000380039215087891,0.000102414587086978
936,0.000406265258789063,0.000119399872069825
937,0.000354766845703125,0.0000858598235801849
938,0.00038909912109375,0.0000688100967695139
939,0.000361442565917969,0.000102207906467963
940,0.000323772430419922,0.000113709416618655
941,0.000280857086181641,0.000103862970580129
942,0.000288486480712891,0.000107771527264817
943,0.000391483306884766,0.000104278083288854
944,0.000579833984375,0.000122341956446172
945,0.000242710113525391,0.00014304478949087
946,0.000288486480712891,0.0000734313741743694
947,0.000440120697021484,0.000150614132310419
948,0.000546455383300781,0.000125621027580824
949,0.000472068786621094,0.00013979056893186
950,0.000601291656494141,0.000110724832715607
951,0.000645637512207031,0.00010033088935728
952,0.000683307647705078,0.000100726700261787
953,0.000342369079589844,0.000111345305366763
954,0.000669479370117188,0.0000957766336957076
955,0.00041961669921875,0.0000957077629500661
956,0.000553131103515625,0.000103803846167928
957,0.000545501708984375,0.000117741127019295
958,0.000601768493652344,0.000141266176936667
959,0.000558376312255859,0.000142618159820024
960,0.000720977783203125,0.000138108373698273
961,0.000621795654296875,0.000157408272210834
962,0.000536441802978516,0.000111698022896205
963,0.000702381134033203,0.000134809210111278
964,0.000706195831298828,0.000126935448699759
965,0.000514507293701172,0.000153387478107451
966,0.000666618347167969,0.000151132557512686
967,0.0006256103515625,0.000150106034994342
968,0.000680446624755859,0.000140889040972654
969,0.000560760498046875,0.000128293123814118
970,0.000558376312255859,0.000165049039098999
971,0.000540733337402344,0.000146621029411905
972,0.000659465789794922,0.000175916078635597
973,0.000626087188720703,0.000150532589477071
974,0.000524520874023438,0.000123422553692568
975,0.000507831573486328,0.000151126539532015
976,0.000619411468505859,0.000140076545845652
977,0.000752925872802734,0.000153689579671963
978,0.000471115112304688,0.000203081133408781
979,0.000392436981201172,0.000182677802694942
980,0.000401020050048828,0.000185621381532316
981,0.000568866729736328,0.000148962585013338
982,0.000373363494873047,0.000184968569468691
983,0.000315666198730469,0.000180246968731051
984,0.000496387481689453,0.00013401075472218
985,0.000679492950439453,0.000179001392015426
986,0.0000472068786621094,0.000230682758351668
987,0.000516414642333984,0.000187323582561842
988,0.000300407409667969,0.000196651251507294
989,0.000248432159423828,0.000208665160850289
990,0.000142097473144531,0.000239518489470923
991,0.000432968139648438,0.000172317100206226
992,0.000339508056640625,0.000230797066041657
993,0.000213146209716797,0.000220952159079216
994,0.000374794006347656,0.000240477256965248
995,0.000174999237060547,0.000213793278033479
996,0.0000667572021484375,0.0001781202211335
997,-0.0000100135803222656,0.000269442953283849
998,0.0000696182250976563,0.000292042420126697
999,-0.000115871429443359,0.00022596648323797
1000,0.000438690185546875,0.000250509749156259
1001,-0.0000472068786621094,0.000229588054863383
1002,0.000349998474121094,0.0002305881160317
1003,0.000287532806396484,0.00029948410560502
1004,0.000411033630371094,0.000264778189417981
1005,-0.000301361083984375,0.000278047995190589
1006,0.000288009643554687,0.000346665533206674
1007,0.000234127044677734,0.000315012932942507
1008,0.000334262847900391,0.000299520545844324
1009,0.00012969970703125,0.000222764112724951
1010,0.000173091888427734,0.000221970642144061
1011,0.000474929809570313,0.000300193892393681
1012,0.000275135040283203,0.000311505712181265
1013,0.000159263610839844,0.000311336325115062
1014,0.000349521636962891,0.000313600830821779
1015,0.000274181365966797,0.000297167120596045
1016,0.000072479248046875,0.000328568137682957
1017,-0.000181198120117187,0.000270695713177068
1018,0.000213146209716797,0.000290912875255418
1019,0.000479698181152344,0.000432829477565929
1020,0.0001678466796875,0.000345382867387103
1021,-0.0000152587890625,0.000255741242262359
1022,0.000601768493652344,0.000486085843820814
1023,-0.000586509704589844,0.000496599745645457
1024,-0.000289440155029297,0.000360907457957177
1025,-0.000576972961425781,0.00041521538467171
1026,-0.000310420989990234,0.000335693359375
1027,-0.000701904296875,0.000304973058124987
1028,0.000627994537353516,0.000402201896609327
1029,-0.0000715255737304688,0.000417216981871213
1030,-0.000712394714355469,0.000376110579397807
1031,0.000534534454345703,0.000727177760639305
1032,-0.000638961791992188,0.000452101981081305
1033,-0.000727653503417969,0.000432762231472527
1034,0.000631809234619141,0.000421260734237044
1035,0,0.000361360777204375
1036,-0.000475406646728516,0.000365773575603275
1037,0.000314235687255859,0.000474397138444476
1038,-0.00150394439697266,0.000434080032176681
1039,-0.0000424385070800781,0.000498996815092627
1040,-0.000756263732910156,0.00053129845811922
1041,-0.000806331634521484,0.000711111140529909
1042,-0.00108814239501953,0.000531476459025072
1043,-0.000216960906982422,0.000555441405331477
1044,-0.000603675842285156,0.000642988696287214
1045,-0.000330924987792969,0.000718156653888118
1046,-0.000717639923095703,0.000729595133655413
1047,-0.00170183181762695,0.000674554547294586
1048,-0.00106716156005859,0.000808859758343419
1049,-0.000775337219238281,0.000708794978357026
1050,-0.00126409530639648,0.000553367827173322
1051,-0.00147199630737305,0.000563272054804854
1052,-0.00199604034423828,0.000702153037405001
1053,-0.00117731094360352,0.000747271834725055
1054,-0.00152301788330078,0.000842556011491609
1055,-0.00145864486694336,0.000861598168208305
1056,-0.00171327590942383,0.00108353519584028
1057,0.000355720520019531,0.000853776632158173
1058,-0.000871181488037109,0.000768526600248133
1059,-0.00244426727294922,0.000957040567741967
1060,-0.00132608413696289,0.000857993174548972
1061,-0.00204324722290039,0.00116182427956353
1062,-0.00275039672851562,0.00123202320336936
1063,-0.000755786895751953,0.000832740636868764
1064,-0.00183773040771484,0.00109443923827563
1065,-0.00103521347045898,0.00159624000351643
1066,-0.00140666961669922,0.00179500051871972
1067,-0.00155067443847656,0.00129672776960634
1068,-0.00177621841430664,0.000914716361393321
1069,0.0000829696655273438,0.000946659995681525
1070,-0.00464630126953125,0.00142916297931816
1071,-0.000360012054443359,0.00182490906937938
1072,-0.000264167785644531,0.00106874175089447
1073,-0.00295734405517578,0.00104859082327445
1074,-0.00175333023071289,0.00100941820089111
1075,0.00124025344848633,0.0013897230620195
1076,-0.00345134735107422,0.000916258202339788
1077,-0.00148963928222656,0.00111344733588794
1078,-0.00246286392211914,0.00152094998603604
1079,-0.0012054443359375,0.00113413971399727
1080,-0.000584125518798828,0.00195895754642695
1081,-0.00152349472045898,0.00226236956296778
1082,-0.00251674652099609,0.00269770039639116
1083,0.0000896453857421875,0.00200216013140525
1084,-0.00240707397460937,0.00187130245565868
1085,-0.00182819366455078,0.00197476085908108
1086,0.000330448150634766,0.00190215356961028
1087,-0.00130844116210937,0.00201358208886265
1088,0.000596046447753906,0.00250834257697359
1089,-0.000666141510009766,0.00244050009123328
1090,-0.00140762329101562,0.00225659899125959
1091,0.000608921051025391,0.00204262701790546
1092,-0.00444698333740234,0.00215554362627079
1093,-0.00244998931884766,0.00247366573042264
1094,0.00295400619506836,0.00317199360574045
1095,-0.00172662734985352,0.00252310432974622
1096,-0.00322818756103516,0.00238803705059495
1097,0.000989437103271484,0.00290165844575326
1098,0.00200700759887695,0.00281730307957103
1099,-0.00636959075927734,0.00405229313298287
1100,0.00123310089111328,0.00278655736812587
