Wavelength (nm),Absorbance (AU),Std.Dev.
190,0.915772438049316,0.285457086601499
191,0.860641002655029,0.200649731974419
192,0.954026699066162,0.402751234795011
193,1.38705158233643,0.613778659749639
194,1.27559804916382,0.519707441927968
195,1.32127618789673,0.308704983908332
196,0.838991165161133,0.353234954189599
197,1.44512224197388,0.71985309373684
198,1.48444223403931,0.403508251082188
199,1.14470291137695,0.197671303157026
200,1.43754434585571,0.140516451160976
201,1.32360410690308,0.150178040700668
202,2.36284589767456,0.345725193504651
203,2.98406791687012,0.453167091256256
204,3.00404500961304,0.625
205,3.96430158615112,1.20813688237819
206,3.44821214675903,0.578533955862521
207,3.16791391372681,0.174616365911505
208,3.52934265136719,0.281758167219553
209,3.25244760513306,0.128817440998759
210,3.34662199020386,0.082815148653103
211,3.12704706192017,0.0485845977897833
212,3.15064334869385,0.0710797306532686
213,3.23595142364502,0.0840765868228618
214,3.28102445602417,0.073912944208259
215,3.27106046676636,0.0498871961323911
216,3.06853866577148,0.0379668108911987
217,3.13171529769897,0.0471147129963146
218,3.27174711227417,0.0567657141754349
219,3.0144157409668,0.0454285287094258
220,2.93721771240234,0.0380796769694243
221,2.91229820251465,0.0266337169293346
222,2.84135007858276,0.015634533834556
223,2.71868658065796,0.024258537834491
224,2.67161464691162,0.0156221387150683
225,2.61316967010498,0.0163054137641653
226,2.47479057312012,0.0103136772870922
227,2.34787702560425,0.00832296660451664
228,2.25096702575684,0.00786903903542446
229,2.17884826660156,0.00630186140967518
230,2.08218908309937,0.00335485220452825
231,1.99670791625977,0.00198704354634777
232,1.92705726623535,0.00178345154768934
233,1.84952735900879,0.00160786661505572
234,1.78239488601685,0.00138127865017224
235,1.72815847396851,0.00213655741778164
236,1.68370342254639,0.00130232669622358
237,1.64426708221436,0.000999101184567936
238,1.61196708679199,0.00079298005072523
239,1.58670425415039,0.000905040443502009
240,1.57048654556274,0.000822206649115057
241,1.56176662445068,0.00064561990350464
242,1.55556631088257,0.00112024870867784
243,1.56100654602051,0.000987174077360863
244,1.57373809814453,0.000776438499870261
245,1.59086561203003,0.00116084691402772
246,1.61676263809204,0.0014720184731058
247,1.65200710296631,0.000941001616176148
248,1.69561004638672,0.00187068024368615
249,1.74825859069824,0.00387663342673545
250,1.80151271820068,0.0026510801212592
251,1.86843156814575,0.00275327079962772
252,1.93813323974609,0.0041488195699552
253,2.02738618850708,0.00499501068807152
254,2.09325456619263,0.00657567064977006
255,2.15744256973267,0.0118860384181976
256,2.24617910385132,0.0108812178342323
257,2.3391580581665,0.0126765185407687
258,2.42818403244019,0.0153170275320159
259,2.47345113754272,0.0251914797684373
260,2.52650165557861,0.0257090627194829
261,2.55876064300537,0.0229160800049568
262,2.55883932113647,0.0315451984385127
263,2.63706731796265,0.0242560806516197
264,2.67740297317505,0.0267409222610283
265,2.6252875328064,0.0286898996517199
266,2.60403108596802,0.0238296758428466
267,2.6052885055542,0.023064506381459
268,2.55108118057251,0.0179160797407433
269,2.42670774459839,0.00944271270841626
270,2.36024188995361,0.00966381407582647
271,2.28701114654541,0.011238095554784
272,2.18481969833374,0.0103169275662696
273,2.08754587173462,0.0104539521806673
274,1.98474168777466,0.00907681222901431
275,1.80521821975708,0.00495109497853293
276,1.60861206054688,0.00250337164731639
277,1.41881561279297,0.00203371668475905
278,1.24959230422974,0.00122972965749871
279,1.10461091995239,0.000750322928048355
280,0.986384868621826,0.000579871628191855
281,0.886713981628418,0.000504391845629504
282,0.808151721954346,0.000353678191726662
283,0.741866588592529,0.000303262434606198
284,0.687965393066406,0.000230840409324009
285,0.644188404083252,0.000142599027143382
286,0.607847213745117,0.000175972939982159
287,0.576963901519775,0.000247669054720959
288,0.552282333374023,0.000216943614396335
289,0.532335758209229,0.000196378192130836
290,0.514650344848633,0.000183482576504764
291,0.500534057617188,0.000199023398754052
292,0.48930025100708,0.000149495863844677
293,0.480275630950928,0.000102611988395242
294,0.472535133361816,0.000159320706851874
295,0.466377735137939,0.000202381284706966
296,0.462003231048584,0.00023024866159512
297,0.458362102508545,0.000201737623944903
298,0.455949783325195,0.000207721562774574
299,0.454581737518311,0.000193983076043126
300,0.454145908355713,0.000279769751822062
301,0.454353332519531,0.000300454332834748
302,0.455111026763916,0.000203881205239301
303,0.456389904022217,0.000135186487998709
304,0.457882881164551,0.000133111891955378
305,0.460941314697266,0.000168652119178048
306,0.463500499725342,0.000195700847958454
307,0.466681003570557,0.000259595684522233
308,0.470376014709473,0.000223110878303672
309,0.473966598510742,0.000239370353660796
310,0.477254390716553,0.000228129581213946
311,0.481291770935059,0.000218518399299652
312,0.485800743103027,0.00024840241252267
313,0.489618301391602,0.000276052064060659
314,0.493904590606689,0.000173710147128549
315,0.498335838317871,0.000202223934712284
316,0.502030849456787,0.000198405518275415
317,0.506254196166992,0.000275808152265824
318,0.509208202362061,0.000315589837925352
319,0.51296854019165,0.000244758241978445
320,0.515899658203125,0.000235262001970342
321,0.518815517425537,0.000303016413931965
322,0.521186828613281,0.00029655437896385
323,0.522804737091064,0.00028751026843356
324,0.524548053741455,0.000201724098577052
325,0.526119709014893,0.000288432486659484
326,0.526768207550049,0.000380505296368705
327,0.527377605438232,0.000439270299392236
328,0.527555465698242,0.000229370073284979
329,0.526678562164307,0.000222964078718766
330,0.525439262390137,0.000292403450602536
331,0.523817539215088,0.000266633422226446
332,0.521323204040527,0.00034687535378829
333,0.519541263580322,0.000269840963947175
334,0.516199111938477,0.000270494047565244
335,0.512879371643066,0.000359280898508713
336,0.508542060852051,0.000237554893141789
337,0.504536151885986,0.00014885875491215
338,0.499831676483154,0.000242750861414067
339,0.494655609130859,0.000236615035134579
340,0.488609313964844,0.000257470871794899
341,0.48270320892334,0.000281377562678222
342,0.476152896881104,0.000366697385684332
343,0.469311714172363,0.000264331271265818
344,0.462307929992676,0.000242150660566318
345,0.454723358154297,0.000166516560656745
346,0.447032928466797,0.000191329981305493
347,0.439136505126953,0.000199735013451742
348,0.430675029754639,0.000203907968913064
349,0.422343254089356,0.000129661133583941
350,0.414011955261231,0.000112499215652915
351,0.404671192169189,0.000200394184202241
352,0.395092010498047,0.000273756029022357
353,0.385809421539307,0.000287560877528906
354,0.377113342285156,0.000190806375448962
355,0.367344379425049,0.000189922510178005
356,0.358192443847656,0.000222947761687114
357,0.348427772521973,0.000238441466186629
358,0.33858060836792,0.000277864758871843
359,0.329022884368896,0.000337417466601738
360,0.319428443908691,0.000413978146336828
361,0.309592247009277,0.000322911363331894
362,0.299100875854492,0.000368962283928008
363,0.289983749389648,0.000370752466272516
364,0.281359195709229,0.000365823302152386
365,0.27298641204834,0.000365823302152386
366,0.264499187469482,0.000192915844856114
367,0.257462978363037,0.000170846169005918
368,0.250790119171143,0.000185758523317949
369,0.242680549621582,0.000220337983971532
370,0.234802722930908,0.000177029286937759
371,0.227214813232422,0.000180524275802252
372,0.219753742218018,0.000221314092794109
373,0.212503910064697,0.000172079424976733
374,0.204599380493164,0.000143593712898212
375,0.19762134552002,0.000147877958497635
376,0.190469741821289,0.000243499032026784
377,0.183303833007812,0.000204335710948898
378,0.176897525787354,0.000259217029855262
379,0.17008113861084,0.00018757588339866
380,0.163915634155273,0.000122222953967822
381,0.157766819000244,0.000133756010252158
382,0.151834011077881,0.000167325685115519
383,0.1460280418396,0.000170069840082781
384,0.14046049118042,0.000149529320697934
385,0.134823799133301,0.000118447732226283
386,0.129172801971436,0.000151306974832716
387,0.124243259429932,0.000215762359564751
388,0.119135856628418,0.000235432039248802
389,0.113895893096924,0.000177434688256191
390,0.109223365783691,0.000201827769900492
391,0.105155944824219,0.000165233536101245
392,0.100763320922852,0.000179453025609422
393,0.096336841583252,0.000199876122310989
394,0.0917873382568359,0.000163384757525717
395,0.0882840156555176,0.000138624361328593
396,0.0849370956420898,0.000148136046134549
397,0.0808706283569336,0.000185601781576448
398,0.0773744583129883,0.000227510796375251
399,0.0738005638122559,0.000207199874282031
400,0.0706014633178711,0.000200639115054551
401,0.0673894882202148,0.000141140576918661
402,0.0645580291748047,0.00019230198796187
403,0.0618586540222168,0.000187512840015134
404,0.0587325096130371,0.00018567527074278
405,0.055882453918457,0.000150921785409533
406,0.0531816482543945,0.00014353986545195
407,0.050999641418457,0.000185086540399293
408,0.0489268302917481,0.000187007727841853
409,0.0459694862365723,0.000170774287019594
410,0.0442924499511719,0.000143960604921276
411,0.0418581962585449,0.000133265535835489
412,0.0400424003601074,0.0002763944951878
413,0.0379433631896973,0.000240764520459721
414,0.035987377166748,0.000163798942921807
415,0.0344429016113281,0.000153132301934672
416,0.0326809883117676,0.000205498559587946
417,0.0312061309814453,0.000214031374192895
418,0.029508113861084,0.000202426219382958
419,0.0281343460083008,0.000173180533795413
420,0.0267972946166992,0.000190157014998364
421,0.0255632400512695,0.000183522226980971
422,0.0240960121154785,0.000118336342360231
423,0.0226936340332031,0.000119525490065714
424,0.0212669372558594,0.000155194196709641
425,0.0205435752868652,0.000121768190111392
426,0.0193791389465332,0.000110401962146557
427,0.0185976028442383,0.000123127442854357
428,0.0172853469848633,0.000130653381347656
429,0.0166230201721191,0.000188069798085576
430,0.0156412124633789,0.000123628712131503
431,0.0144119262695312,0.000114764312936229
432,0.013951301574707,0.000131510270507341
433,0.0134067535400391,0.000104428426310121
434,0.0126557350158691,0.000147224582637046
435,0.0111269950866699,0.00017247800497539
436,0.0112910270690918,0.000153683661819795
437,0.0104818344116211,0.000165557971198401
438,0.00967264175415039,0.000152403004215393
439,0.00928306579589844,0.000173322272081691
440,0.00828647613525391,0.000197297676711819
441,0.00842380523681641,0.000175237493450064
442,0.00776052474975586,0.000155202987008807
443,0.00728416442871094,0.000138108373698273
444,0.00664615631103516,0.000154924385361981
445,0.00622940063476563,0.000110379305238573
446,0.00604438781738281,0.000146257701970526
447,0.0056452751159668,0.0000957125142476564
448,0.00526857376098633,0.000111420835929374
449,0.00488805770874023,0.000130098794767646
450,0.00487947463989258,0.000108408904322061
451,0.00425100326538086,0.000108804585315267
452,0.00401830673217773,0.000133374686023911
453,0.00361061096191406,0.0000984896732747102
454,0.00327682495117187,0.0000809402107147359
455,0.00334310531616211,0.000124149936411364
456,0.00294971466064453,0.000127121602653134
457,0.00282526016235352,0.000123359901710664
458,0.00264453887939453,0.0000891902203666799
459,0.00214576721191406,0.0000989273356480786
460,0.00206947326660156,0.0000941412296575008
461,0.00228071212768555,0.0000987732234257757
462,0.00161218643188477,0.000125599305739528
463,0.0018458366394043,0.000111712271261385
464,0.00177431106567383,0.0000988054458460191
465,0.00164604187011719,0.00012140539994964
466,0.00138616561889648,0.000122059136117467
467,0.000986576080322266,0.000132838308494946
468,0.00104379653930664,0.0001619618664641
469,0.000985145568847656,0.000106777458208301
470,0.000735759735107422,0.0000725356936256654
471,0.000505924224853516,0.000112949024704815
472,0.000649929046630859,0.000101504732545013
473,0.000840187072753906,0.000113833324485889
474,0.000440120697021484,0.000115331522201994
475,0.000518798828125,0.000102239046393617
476,0.000368118286132812,0.000127728289585365
477,0.000314712524414062,0.0000840546382839612
478,0.000514507293701172,0.000103450587991379
479,0.000300407409667969,0.000120667126542541
480,0.000235080718994141,0.0000810581093986473
481,0.000112056732177734,0.000100981456695168
482,0.000153541564941406,0.0000978992092270572
483,-0.0000276565551757812,0.000113395044396418
484,-0.000101089477539062,0.000105148810464515
485,0.000792026519775391,0.000136858079368051
486,0.000567913055419922,0.0000882805760034008
487,-0.000451564788818359,0.0000856370861703387
488,-0.000302314758300781,0.000110166928103714
489,-0.000157356262207031,0.0000743835399684339
490,-0.000114917755126953,0.0000818994714609035
491,-0.000034332275390625,0.0000964838484928789
492,-0.000249862670898437,0.0000834669360620158
493,-0.0000777244567871094,0.0000843328002273662
494,-0.000232696533203125,0.0000892029660146531
495,-0.000327110290527344,0.000109829996948076
496,-0.000185489654541016,0.000103443994092018
497,-0.000295162200927734,0.0000814484766876075
498,-0.000408649444580078,0.000117373638416407
499,-0.000152587890625,0.0000979410058126783
500,-0.000215053558349609,0.000105937292171015
501,-0.0000414848327636719,0.0000841911334896218
502,-0.000296115875244141,0.0000783595948518398
503,-0.0003509521484375,0.000100753784612979
504,-0.000349044799804687,0.0000726061888901445
505,-0.000101089477539062,0.000101786585045606
506,-0.000213623046875,0.0000961391694720075
507,-0.000364303588867187,0.000112100349216211
508,-0.000228404998779297,0.000093350540893116
509,-0.000266075134277344,0.0000886532484761318
510,-0.0000629425048828125,0.000081145019977572
511,-0.00017547607421875,0.0000912243197904062
512,-0.000154018402099609,0.0000724964999697938
513,-0.000144481658935547,0.0000928033408797267
514,-0.000173568725585937,0.000115581628847285
515,-0.000179767608642578,0.0000902495418366623
516,-0.000312328338623047,0.0000846436324434168
517,-0.000152587890625,0.000069885524599309
518,-0.0000567436218261719,0.0000967309748314359
519,-0.0000367164611816406,0.000084045170005893
520,-0.000107765197753906,0.0000846624340819023
521,-0.0000677108764648438,0.0000757721101634173
522,-0.0000720024108886719,0.0000940131347835467
523,-0.0000767707824707031,0.000114534260511961
524,-0.0000457763671875,0.000115711392058648
525,-0.000095367431640625,0.000108295587072428
526,-0.0000662803649902344,0.0000908246494354944
527,0.0000467300415039063,0.0000837049568949366
528,0.0000252723693847656,0.0000858902724396405
529,0.000156402587890625,0.000067702480923967
530,-0.000167369842529297,0.000086021211881864
531,0.0000514984130859375,0.000100690576460827
532,0.000237941741943359,0.0000805149107964605
533,0.000126838684082031,0.0000894778288723362
534,-0.000026702880859375,0.000104537235419503
535,0.000119686126708984,0.0000873172038315615
536,0.000104427337646484,0.000072323795555623
537,0.000144481658935547,0.0000531561159673376
538,0.000120162963867187,0.0000664807453573254
539,0.000172138214111328,0.000106382786772633
540,0.000206947326660156,0.0000924744501655455
541,0.000216484069824219,0.0000713074856094155
542,0.000167369842529297,0.0000767085611049732
543,0.000041961669921875,0.000101953984456532
544,0.000250816345214844,0.0000914433939008188
545,0.000195980072021484,0.0000763386357070261
546,0.000147342681884766,0.0000941074102210548
547,0.000146865844726562,0.000103091708384174
548,0.000205516815185547,0.0000774093395051976
549,0.000151157379150391,0.0000729903595641943
550,0.000349998474121094,0.000107906468385579
551,0.000216007232666016,0.000093348105163878
552,0.0002593994140625,0.000106087427092418
553,0.000273704528808594,0.000107904361228344
554,0.000170230865478516,0.0000738574427363863
555,0.00029754638671875,0.0000835254840370572
556,0.000268936157226562,0.000103118171559518
557,0.000260353088378906,0.000096167545850864
558,0.000306606292724609,0.0000954198693116313
559,0.000278949737548828,0.0000908071236942579
560,0.000400066375732422,0.000098796240512618
561,0.00030517578125,0.0000735767615394148
562,0.000209331512451172,0.0000574633291902265
563,0.000307083129882812,0.0000662185875032285
564,0.000375270843505859,0.0000669782249428497
565,0.000224590301513672,0.0000711766314358207
566,0.000229835510253906,0.0000961604525411843
567,0.000499725341796875,0.0000837416198674241
568,0.0004730224609375,0.0000683841676328736
569,0.000431537628173828,0.0000918428473621818
570,0.000508308410644531,0.0000820949639978777
571,0.000507354736328125,0.0000746672787897621
572,0.000504016876220703,0.0000681593642624116
573,0.000521659851074219,0.000070245736557239
574,0.000601291656494141,0.0000793357301826835
575,0.000468254089355469,0.0000569875267611754
576,0.000507354736328125,0.0000666856382163261
577,0.000546455383300781,0.0000756655083090082
578,0.000761032104492188,0.0000621353764696576
579,0.000266075134277344,0.0000704283801446129
580,0.000642299652099609,0.0000606989541662963
581,0.000559329986572266,0.0000752662947385357
582,0.000893115997314453,0.0000702311693010307
583,-0.0000696182250976563,0.0000825217642778243
584,0.000614643096923828,0.0000730043762550531
585,0.00074005126953125,0.0000639210837495336
586,0.000368595123291016,0.0000774709980379726
587,0.000525474548339844,0.0000782536122299612
588,0.000465869903564453,0.0000667248374958975
589,0.000432968139648438,0.0000643147098544593
590,0.00055694580078125,0.0000612638332178246
591,0.000528335571289063,0.0000659347000787491
592,0.000599384307861328,0.0000638499021197147
593,0.000735282897949219,0.0000566413502708402
594,0.000411033630371094,0.0000736879280700701
595,0.000613689422607422,0.0000823507573964553
596,0.000475883483886719,0.0000808544860619608
597,0.000499725341796875,0.0000794431312907402
598,0.00048828125,0.000072640628342623
599,0.000764369964599609,0.0000927886393602871
600,0.000474452972412109,0.0000710999221246365
601,0.000515460968017578,0.0000624965998816243
602,0.00054168701171875,0.0000682726910747354
603,0.000523567199707031,0.0000732577699734752
604,0.000483989715576172,0.0000525808920288728
605,0.000388622283935547,0.000067169753921092
606,0.000515937805175781,0.0000693630086745002
607,0.000490665435791016,0.0000787286884977929
608,0.000621318817138672,0.0000528052750092079
609,0.000401973724365234,0.0000673472351157907
610,0.000690460205078125,0.0000586916619543608
611,0.000512599945068359,0.0000729124399916654
612,0.000566005706787109,0.000055071079251269
613,0.000510215759277344,0.0000623144255306868
614,0.000462532043457031,0.0000536733124361237
615,0.000525474548339844,0.0000712500670288881
616,0.000432968139648438,0.0000720402952658564
617,0.000370025634765625,0.0000648410875342233
618,0.000429630279541016,0.0000461572457898333
619,0.000314712524414062,0.0000687075850947505
620,0.000415325164794922,0.0000758770639646664
621,0.000378608703613281,0.0000711510708545104
622,0.000505924224853516,0.0000765394195679251
623,0.000415802001953125,0.0000924080394497472
624,0.000511646270751953,0.000072895286508171
625,0.000395774841308594,0.000078821052440391
626,0.000487327575683594,0.0000677863895412072
627,0.000437736511230469,0.0000855945942810165
628,0.000530242919921875,0.0000957481414643183
629,0.000456809997558594,0.0000648463472652634
630,0.000570297241210938,0.0000505897034068102
631,0.00048065185546875,0.0000654813925593254
632,0.000466346740722656,0.0000692613153535313
633,0.000427722930908203,0.0000611430942268841
634,0.000455379486083984,0.000091181937993537
635,0.000357627868652344,0.000090536296587217
636,0.000428199768066406,0.0000726562772426823
637,0.00042724609375,0.00007267818004203
638,0.000379085540771484,0.0000808319858566936
639,0.0004119873046875,0.000077143056767124
640,0.000468254089355469,0.0000830819477329801
641,0.000494956970214844,0.0000987893359496581
642,0.000387191772460937,0.0000674787761034991
643,0.000363349914550781,0.0000856715953120259
644,0.000435829162597656,0.0000860938699662985
645,0.000387668609619141,0.0000874473067195713
646,0.000443458557128906,0.0000844176861548679
647,0.000390529632568359,0.0000838894667323823
648,0.000418186187744141,0.000078955076211901
649,0.000307083129882812,0.000100459981874492
650,0.000303268432617187,0.0000866795000640068
651,0.000420093536376953,0.0000887609027337374
652,0.000463008880615234,0.0000874888987821939
653,0.000494003295898438,0.0000734096961012647
654,0.000469684600830078,0.0000632775665189119
655,0.000309467315673828,0.0000759040286286312
656,0.00296115875244141,0.0000603109473719582
657,-0.0013427734375,0.000055540783706555
658,-0.000111579895019531,0.0000593389310479544
659,0.000362396240234375,0.0000649602035291681
660,0.000424385070800781,0.0000483666626903045
661,0.000424861907958984,0.0000580880826295512
662,0.00042724609375,0.0000763862766419743
663,0.000478267669677734,0.0000789003413171341
664,0.000332355499267578,0.0000867004827561718
665,0.000314712524414062,0.0000964602796309856
666,0.000408172607421875,0.000094574973669496
667,0.000313758850097656,0.0000938194528003569
668,0.000367641448974609,0.000078562449172022
669,0.000311374664306641,0.0000773167595096821
670,0.000414371490478516,0.0000743651970624047
671,0.000314235687255859,0.0000703589344841865
672,0.000434398651123047,0.0000685286501589263
673,0.000347614288330078,0.0000801951645045499
674,0.0003509521484375,0.0000883603829064231
675,0.000401973724365234,0.0000744186845675923
676,0.000406265258789063,0.0000446371540077214
677,0.000431537628173828,0.0000458322124774956
678,0.000400066375732422,0.0000575157335346041
679,0.000320911407470703,0.0000525051628691071
680,0.000383377075195312,0.0000629551470227096
681,0.000461101531982422,0.0000759699019597601
682,0.000399589538574219,0.0000761089466199065
683,0.000431537628173828,0.0000684290396840254
684,0.000520229339599609,0.000072862527734934
685,0.000478744506835938,0.0000499371683761069
686,0.000414848327636719,0.000069027840344229
687,0.000463962554931641,0.0000670732103176804
688,0.000527381896972656,0.0000580548016196337
689,0.000476360321044922,0.0000736354536775238
690,0.000519275665283203,0.0000767381966187913
691,0.000494956970214844,0.0000685369444969772
692,0.000518321990966797,0.000064478893100607
693,0.000572681427001953,0.0000648884097652098
694,0.000554561614990234,0.0000646109950483487
695,0.000571250915527344,0.000072862527734934
696,0.000535488128662109,0.000068920704100325
697,0.000538825988769531,0.000073361671857594
698,0.000459194183349609,0.000084484995232964
699,0.000433921813964844,0.0000915726004345536
700,0.000426769256591797,0.0000799082907305136
701,0.000450611114501953,0.000056803695550685
702,0.000412940979003906,0.0000763401249362711
703,0.000367164611816406,0.000061953974974631
704,0.000347137451171875,0.0000647235088384901
705,0.000301837921142578,0.0000620236665703024
706,0.000265121459960937,0.0000663146609487491
707,0.000363826751708984,0.0000743254385696362
708,0.000297069549560547,0.0000669272844677839
709,0.000224590301513672,0.0000659174554857829
710,0.000239372253417969,0.0000597303971306047
711,0.000252723693847656,0.0000675293005641956
712,0.000305652618408203,0.0000656738246905315
713,0.00026702880859375,0.000062692753598097
714,0.000294685363769531,0.0000656391939010056
715,0.000293731689453125,0.0000758141091191439
716,0.0003662109375,0.0000713521125605221
717,0.000342369079589844,0.0000680157687640741
718,0.000351428985595703,0.0000745499480137909
719,0.000382900238037109,0.0000732049872380396
720,0.000444889068603516,0.00005831369481598
721,0.000451087951660156,0.00006844565149688
722,0.000449180603027344,0.0000665251923621952
723,0.000440597534179688,0.0000844809582005768
724,0.000461578369140625,0.0000557083772526599
725,0.000481128692626953,0.0000596437326057574
726,0.000498294830322266,0.000059235382664755
727,0.000529289245605469,0.000069606793131273
728,0.000486850738525391,0.0000669680399477415
729,0.000561714172363281,0.000061759156451171
730,0.000536441802978516,0.0000695463358059102
731,0.000555515289306641,0.0000695659493440128
732,0.000554561614990234,0.0000630940433770107
733,0.000484943389892578,0.0000768640200790782
734,0.000503063201904297,0.0000713106741749641
735,0.000464916229248047,0.0000768211152361712
736,0.000488758087158203,0.0000795318067011889
737,0.000475406646728516,0.0000680558724048016
738,0.000425815582275391,0.0000667129097186281
739,0.000431537628173828,0.0000733787163159126
740,0.000425338745117188,0.0000764472732013209
741,0.000310897827148437,0.0000700512574006765
742,0.000349044799804687,0.0000732313833612617
743,0.000388622283935547,0.0000692334056075445
744,0.000388622283935547,0.0000660742154110475
745,0.000293731689453125,0.0000768344330961586
746,0.000246524810791016,0.0000755000532672781
747,0.000404834747314453,0.000080782744809125
748,0.000255584716796875,0.0000651751103154453
749,0.000305652618408203,0.000091181937993537
750,0.000363826751708984,0.0000645757942856987
751,0.00043487548828125,0.000065516106760226
752,0.000384330749511719,0.0000687191666515281
753,0.000388145446777344,0.0000625166066513028
754,0.000451087951660156,0.000068274356242016
755,0.000407695770263672,0.0000624965998816243
756,0.0004425048828125,0.0000508709493429909
757,0.000499248504638672,0.00006868607130832
758,0.000494003295898438,0.0000609568749534726
759,0.000470638275146484,0.0000502967147334833
760,0.000498294830322266,0.000058321492588865
761,0.000487327575683594,0.0000563919163067637
762,0.000472545623779297,0.0000628286111526425
763,0.000529289245605469,0.0000643977365006652
764,0.000492095947265625,0.0000726703583715156
765,0.000508308410644531,0.0000629334732280498
766,0.000510215759277344,0.0000592766319341947
767,0.000515460968017578,0.0000625747717918963
768,0.000545978546142578,0.0000518197173572432
769,0.000641345977783203,0.0000443881356282659
770,0.0004730224609375,0.0000527029109178471
771,0.000510692596435547,0.0000476932516099929
772,0.000542163848876953,0.0000678852683126717
773,0.000538349151611328,0.000066160189131816
774,0.000454902648925781,0.0000613546947725938
775,0.000474452972412109,0.0000726734871407406
776,0.000535488128662109,0.0000772902877140462
777,0.000505447387695313,0.0000760028172151224
778,0.000350475311279297,0.0000800845132546065
779,0.000388622283935547,0.000055179352006528
780,0.000432014465332031,0.0000561403616140506
781,0.0003662109375,0.000060650237603167
782,0.000407695770263672,0.0000559161462461415
783,0.000375270843505859,0.0000596141807557373
784,0.000318527221679687,0.0000521379514054931
785,0.000313282012939453,0.000061172836704249
786,0.000399589538574219,0.0000700837080705973
787,0.000326633453369141,0.0000756429675682342
788,0.000388145446777344,0.000082132345656567
789,0.0003662109375,0.0000715954756894053
790,0.000252246856689453,0.0000609036981992323
791,0.000331878662109375,0.0000817118594782331
792,0.000308990478515625,0.000077143056767124
793,0.000395298004150391,0.0000564845767782625
794,0.000333786010742187,0.0000573157470753354
795,0.000371456146240234,0.0000656945944015791
796,0.000376701354980469,0.0000674130376936382
797,0.000348091125488281,0.0000578576610027832
798,0.000295639038085937,0.0000708227596206029
799,0.000411033630371094,0.0000585442634562199
800,0.000433444976806641,0.0000553069440101133
801,0.000428199768066406,0.0000582912704083867
802,0.000424861907958984,0.000056243544159343
803,0.000438690185546875,0.0000482501716355834
804,0.000494480133056641,0.000069756892334454
805,0.000399589538574219,0.0000707649477351728
806,0.000411033630371094,0.0000569026785410788
807,0.000438213348388672,0.0000596380140356867
808,0.000449180603027344,0.0000741907132674283
809,0.000382423400878906,0.0000783523403413533
810,0.000300884246826172,0.0000843732327486162
811,0.000397205352783203,0.0000713393648517133
812,0.000400543212890625,0.0000587090925329625
813,0.000364303588867187,0.0000770663855143906
814,0.000348091125488281,0.0000876524756822465
815,0.000356674194335937,0.0000912666819063088
816,0.000372886657714844,0.0000672644688349271
817,0.000311374664306641,0.000068141014273536
818,0.000244617462158203,0.0000684788630333566
819,0.000263214111328125,0.0000671714464299787
820,0.000328540802001953,0.0000635822612792331
821,0.000318527221679687,0.0000679405106337379
822,0.000317573547363281,0.0000603467519650936
823,0.000232696533203125,0.0000611189178066567
824,0.000292301177978516,0.0000569825391867287
825,0.000277996063232422,0.0000548279797460655
826,0.000329017639160156,0.0000597865190892172
827,0.000347137451171875,0.0000785349496725701
828,0.000250816345214844,0.0000843044859245613
829,0.000134468078613281,0.0000840302891277281
830,0.000269889831542969,0.0000715001378926337
831,0.000301361083984375,0.0000681543602099659
832,0.000251293182373047,0.0000732732870713539
833,0.000306606292724609,0.0000800561165041022
834,0.000371456146240234,0.0000970430981034086
835,0.000315189361572266,0.0000703169108123254
836,0.000441551208496094,0.0000581223225869185
837,0.000341415405273437,0.0000983302505567234
838,0.000425338745117188,0.0000966721925274674
839,0.000407218933105469,0.0000725795653932207
840,0.000412464141845703,0.0000723787916603481
841,0.000537395477294922,0.0000880019737596634
842,0.000469207763671875,0.0000726703583715156
843,0.000538349151611328,0.0000673691764497857
844,0.00051116943359375,0.0000844701918376185
845,0.000474452972412109,0.0000819674614446005
846,0.000514507293701172,0.0000789392358032254
847,0.000548362731933594,0.0000766255206897192
848,0.000588893890380859,0.0000709141987177319
849,0.000571727752685547,0.0000553983409886526
850,0.000552654266357422,0.0000713122684042748
851,0.000576496124267578,0.0000930773430096607
852,0.000527858734130859,0.0000759205023197682
853,0.000561237335205078,0.0000542977049481345
854,0.000635623931884766,0.0000526629889601685
855,0.000641822814941406,0.0000794302508254809
856,0.000506877899169922,0.0000704848551707005
857,0.000573158264160156,0.0000762358086335054
858,0.000559806823730469,0.0000745453729471695
859,0.000592708587646484,0.0000892666669568407
860,0.000550746917724609,0.0000753040468072879
861,0.000443458557128906,0.000074449231603017
862,0.000476360321044922,0.0000829024974751821
863,0.000451087951660156,0.0000824597463258883
864,0.000390529632568359,0.0000809444243390005
865,0.000454902648925781,0.0000679070358038413
866,0.000475406646728516,0.0000922701463274898
867,0.000437259674072266,0.0000724902270183267
868,0.000333786010742187,0.0000837049568949366
869,0.000411033630371094,0.000089551490958458
870,0.000363349914550781,0.0000798143362115669
871,0.000373363494873047,0.0000786029572142101
872,0.000331401824951172,0.0000819313921528894
873,0.000367641448974609,0.0000688563423392666
874,0.000303745269775391,0.0000847080778299066
875,0.000361919403076172,0.0000806461196362119
876,0.000336647033691406,0.0000747342422426798
877,0.000371932983398437,0.000066690752472476
878,0.0003509521484375,0.0000619466344562433
879,0.000396728515625,0.0000615415576001934
880,0.000418663024902344,0.000072323795555623
881,0.000319004058837891,0.0000532896192466061
882,0.000253677368164062,0.0000609950962327291
883,0.000483512878417969,0.0000627887900704433
884,0.000425815582275391,0.0000801143190098471
885,0.000440597534179688,0.0000997308079712019
886,0.000467777252197266,0.0000907094182923674
887,0.000449657440185547,0.0000783479873126358
888,0.000547885894775391,0.0000797502128492338
889,0.000466346740722656,0.0000894142783672436
890,0.000474929809570313,0.0000685419206180281
891,0.000603675842285156,0.0000734994636365175
892,0.000555515289306641,0.0000875044907089133
893,0.000549793243408203,0.0000852485625363653
894,0.000509262084960938,0.0000803113257971637
895,0.000600337982177734,0.0000856224819619014
896,0.000658035278320313,0.0000835622257533968
897,0.000623226165771484,0.0000893277771245025
898,0.000722408294677734,0.0000894651223827065
899,0.000636100769042969,0.0000892768548896468
900,0.000753402709960938,0.0000890320227407081
901,0.000673294067382813,0.0000723489418193428
902,0.000682353973388672,0.0000649304450167131
903,0.000654697418212891,0.0000803042476019852
904,0.000726222991943359,0.0000848287809674724
905,0.000776290893554688,0.0000900073555663222
906,0.000726699829101563,0.000068221050729577
907,0.000764369964599609,0.0000881594406402432
908,0.000669479370117188,0.000101869203134358
909,0.000647544860839844,0.0000767337520213754
910,0.000803470611572266,0.0000780397584359855
911,0.000580310821533203,0.000109494105589163
912,0.000561714172363281,0.000109165512307371
913,0.000592231750488281,0.000109956208637886
914,0.000570297241210938,0.0000945220672799022
915,0.000513553619384766,0.0000776673909019026
916,0.000492095947265625,0.0000979781433647998
917,0.000658988952636719,0.0000894803699537389
918,0.000486850738525391,0.00012277607742221
919,0.000458240509033203,0.000111373890522555
920,0.000521183013916016,0.000128844894316621
921,0.000398159027099609,0.000126860193708949
922,0.000394344329833984,0.000117835714501026
923,0.000336170196533203,0.000116097853039041
924,0.000379085540771484,0.0000819619133559624
925,0.000397682189941406,0.00009380975820433
926,0.000517368316650391,0.0000996213139129684
927,0.000370979309082031,0.000115715322005566
928,0.000238418579101562,0.000090136098045886
929,0.000403404235839844,0.000110921793735876
930,0.000368595123291016,0.0000912218272886013
931,0.000272274017333984,0.000118924755034097
932,0.000318527221679687,0.000107975981505274
933,0.000272274017333984,0.000099680638124308
934,0.000221729278564453,0.000105233110230512
935,0.000240802764892578,0.000106147421602759
936,0.000353813171386719,0.0000979711811460932
937,0.000253200531005859,0.0000925850288340931
938,0.000326156616210937,0.0000816909871054259
939,0.000389575958251953,0.000118195995560692
940,0.000283241271972656,0.000121354822559543
941,0.000174522399902344,0.000105168270254201
942,0.000303745269775391,0.0000758276038432473
943,0.000340461730957031,0.0000834015316355722
944,0.000459194183349609,0.000116492791387081
945,0.000188350677490234,0.000162362877317718
946,0.000368118286132812,0.0000951334945082036
947,0.000349521636962891,0.000144137390959456
948,0.000377178192138672,0.000109433868092081
949,0.000286579132080078,0.000144194169012588
950,0.000525951385498047,0.000124734621750457
951,0.000396251678466797,0.000103692074742285
952,0.000600337982177734,0.000100335421730935
953,0.000387668609619141,0.0000790457374004444
954,0.000596523284912109,0.0000835282061999154
955,0.000420093536376953,0.000100403382783904
956,0.000432491302490234,0.000108961203356717
957,0.000568389892578125,0.000130203614546784
958,0.000583171844482422,0.000129783827485687
959,0.000469207763671875,0.000171239652767287
960,0.000522613525390625,0.000149708643490582
961,0.000512599945068359,0.000119079519210239
962,0.000596523284912109,0.0000983348751422901
963,0.000615119934082031,0.000126580283461263
964,0.000552654266357422,0.000152897520628594
965,0.000419139862060547,0.000217487931733709
966,0.000513076782226563,0.000188180991888742
967,0.000494003295898438,0.000164159459104652
968,0.000532627105712891,0.000137507799232841
969,0.000357627868652344,0.000127332486226045
970,0.000687122344970703,0.000157278214953057
971,0.000417232513427734,0.000157918791543672
972,0.000446319580078125,0.000155141444455435
973,0.000412940979003906,0.000135914483730432
974,0.000238418579101562,0.000139572443617192
975,0.000485897064208984,0.00011913487973099
976,0.00043487548828125,0.00012530206317817
977,0.000701904296875,0.000149319331012308
978,0.000497341156005859,0.000198400934203275
979,0.000286102294921875,0.000191272930320832
980,0.000357627868652344,0.000182014433512237
981,0.000302314758300781,0.000144723023348494
982,0.000441074371337891,0.000179300916668793
983,0.000280380249023437,0.000175123274706086
984,0.000311374664306641,0.000175709154987393
985,0.000522613525390625,0.000169890595268731
986,0.000232219696044922,0.000169903978276769
987,0.000236988067626953,0.000153369688895666
988,0.000295162200927734,0.000184160412220196
989,0.000190258026123047,0.000189634966470062
990,0.000134468078613281,0.00020326019365025
991,-0.00000238418579101562,0.000177373167992594
992,0.000569820404052734,0.000230296057367873
993,0.000192642211914062,0.000209374412537576
994,0.000310897827148437,0.000208865561702355
995,0.000280857086181641,0.000269854445547141
996,0.000245571136474609,0.000258472131599196
997,-0.00005340576171875,0.000306940934329806
998,-0.0000629425048828125,0.000268597761947928
999,-0.0000123977661132812,0.000240110118790079
1000,0.000138282775878906,0.000213060319052822
1001,0.000162124633789062,0.0002147906614407
1002,-0.000104904174804687,0.000220383384274037
1003,0.000322818756103516,0.000222506749528438
1004,0.000297069549560547,0.000242698403096563
1005,-0.000165462493896484,0.000323491051477461
1006,0.000672817230224609,0.000314417614175654
1007,-0.000110149383544922,0.000227782470235842
1008,0.000507831573486328,0.00023734039658054
1009,0.0000910758972167969,0.000280477545847348
1010,-0.000331878662109375,0.000239218324205218
1011,0.000107288360595703,0.000197900633772977
1012,-0.000345706939697266,0.000262487486611286
1013,0.000557422637939453,0.000264736967042047
1014,-0.000178813934326172,0.000287864345252994
1015,-0.0000596046447753906,0.000296499170105704
1016,-0.000498771667480469,0.000372602398323245
1017,-0.000072479248046875,0.000387534567637985
1018,-0.0000939369201660156,0.000320604824067838
1019,0.000136852264404297,0.00041864455927487
1020,-0.0000395774841308594,0.00040065218941635
1021,0.000057220458984375,0.000357535032302554
1022,-0.000100612640380859,0.000295435927977192
1023,-0.000498294830322266,0.000308389432333521
1024,-0.000372886657714844,0.00031502448139574
1025,-0.000571250915527344,0.000407432169775037
1026,0.000123500823974609,0.000306104201466517
1027,-0.000537395477294922,0.000280853443089741
1028,0.000562191009521484,0.000371360337972747
1029,0.0000619888305664063,0.000362346043372823
1030,-0.00118350982666016,0.000404771557247026
1031,0.000432014465332031,0.000626156731176699
1032,-0.00043487548828125,0.000545448353965763
1033,-0.000640869140625,0.000500990452862
1034,0.000317096710205078,0.000505616501641263
1035,0,0.00044268571513029
1036,-0.000960826873779297,0.000435352064301829
1037,0.000196456909179687,0.000580273010288416
1038,-0.00161504745483398,0.000534193839002542
1039,-0.000199794769287109,0.000471720904470611
1040,-0.00105047225952148,0.000512221662532399
1041,-0.000451564788818359,0.000767484478418836
1042,-0.00116825103759766,0.00078566095751085
1043,-0.000978469848632813,0.000570128170200377
1044,-0.000723361968994141,0.000456211318967117
1045,-0.00009918212890625,0.000719715203722241
1046,-0.000597000122070313,0.000755444909590429
1047,-0.00196218490600586,0.000695845117327612
1048,-0.000922203063964844,0.000880906028738532
1049,-0.00167179107666016,0.000741936553391637
1050,-0.000955104827880859,0.000573284401874554
1051,-0.00291347503662109,0.00054500797575946
1052,-0.00197649002075195,0.00111887093235366
1053,-0.00116205215454102,0.000968166859337802
1054,-0.00132513046264648,0.000750051360060538
1055,-0.00164318084716797,0.000806517582392348
1056,0,0.000903721024584944
1057,-0.00084686279296875,0.00115196278303825
1058,-0.000949859619140625,0.00121412891104428
1059,-0.00316429138183594,0.000931817405850628
1060,-0.0016636848449707,0.000994107472554577
1061,-0.00202274322509766,0.0011235692012027
1062,-0.00269699096679687,0.00113897942860196
1063,0.000281333923339844,0.000935355679599943
1064,-0.00212860107421875,0.00136060150216436
1065,-0.00205087661743164,0.00174047208804355
1066,-0.000888824462890625,0.00114028186405162
1067,-0.00114297866821289,0.0014075767695485
1068,-0.00335168838500977,0.00120783219259723
1069,-0.00126934051513672,0.00133625529229318
1070,-0.00291061401367187,0.00145515576097891
1071,-0.00212955474853516,0.00192584416246079
1072,-0.00132131576538086,0.00103695232294184
1073,-0.00262355804443359,0.000907657495280439
1074,-0.0000586509704589844,0.00125644338178612
1075,-0.0017704963684082,0.00125212752813132
1076,-0.00410223007202148,0.00176118421374848
1077,-0.00174045562744141,0.00140198298624697
1078,-0.00245475769042969,0.00166680882389067
1079,-0.00226736068725586,0.00156374672980466
1080,-0.00157546997070312,0.00175173955485288
1081,-0.00322771072387695,0.0026153582258007
1082,-0.00247716903686523,0.00248033951249949
1083,-0.00231361389160156,0.00137663539981386
1084,-0.00248336791992187,0.00238457333276098
1085,-0.00155067443847656,0.0017742566661907
1086,-0.000603675842285156,0.00167064578555742
1087,-0.0010380744934082,0.0016327973803135
1088,-0.00134897232055664,0.00284411712519417
1089,-0.00251245498657227,0.00261829438217794
1090,-0.00267696380615234,0.00270248619425421
1091,-0.000792980194091797,0.00296806001173962
1092,-0.00148773193359375,0.00274488608664171
1093,0.0000605583190917969,0.00260527904912269
1094,0.00118494033813477,0.00255223488682063
1095,-0.0021061897277832,0.0021209716796875
1096,-0.00403642654418945,0.00245974330083232
1097,0.0018162727355957,0.00263902069203228
1098,0.00184965133666992,0.00275496158264119
1099,-0.00675487518310547,0.00351542101374218
1100,-0.0032806396484375,0.00319145881021237
