Wavelength (nm),Absorbance (AU),Std.Dev.
190,0.656840801239014,0.529754328380147
191,0.999984264373779,0.498953678159826
192,1.49352645874023,0.809470765328727
193,1.04671812057495,0.394492572361556
194,0.530139923095703,0.335500033109979
195,1.43878078460693,0.650493258606258
196,1.22466278076172,0.508067844456144
197,1.82364225387573,0.814900300650331
198,1.44307613372803,0.477402244267904
199,1.90414381027222,0.478503666942421
200,1.81470632553101,0.409309020804231
201,1.34010457992554,0.548393539014468
202,2.87325954437256,1.12687019029756
203,2.67829084396362,0.5481013036497
204,3.05782985687256,0.495085404860079
205,3.71169471740723,0.859126384492555
206,3.21168565750122,0.417777044237002
207,3.09976291656494,0.127122033068638
208,3.53029012680054,0.159649302473495
209,3.14978551864624,0.0485023310779504
210,3.38662481307983,0.0661400339382697
211,3.23668670654297,0.048095083474752
212,3.19025707244873,0.0671914742647249
213,3.2462944984436,0.0757607343766612
214,3.14013862609863,0.0715077846530796
215,3.22790718078613,0.058655769585993
216,3.15842151641846,0.0687974246053166
217,3.33779621124268,0.0612204219478808
218,3.1632227897644,0.0664816036162243
219,3.01915216445923,0.0393505916933897
220,2.92618608474731,0.0423582225433128
221,2.86450242996216,0.0425687727150011
222,2.80661630630493,0.0241427798991447
223,2.714271068573,0.0183747247688285
224,2.66180801391602,0.0191206691800013
225,2.59419012069702,0.0108025329714525
226,2.45072793960571,0.0101163815210452
227,2.33500099182129,0.00727612280521649
228,2.23612070083618,0.00573470685866521
229,2.16005802154541,0.00446996582937727
230,2.0623984336853,0.0025922432768732
231,1.97055816650391,0.00278714219136156
232,1.902024269104,0.00275289023033789
233,1.82671499252319,0.00190429442967967
234,1.76275682449341,0.00160086442108573
235,1.71008825302124,0.00116470148003184
236,1.66634511947632,0.00111373482214843
237,1.6284875869751,0.00124462061685082
238,1.59459209442139,0.00110449814731599
239,1.57241678237915,0.00108635184218583
240,1.55412292480469,0.000952605602356482
241,1.54405450820923,0.000955381772269119
242,1.54163694381714,0.00119822792660311
243,1.54473400115967,0.00187769924025403
244,1.5557689666748,0.00144165278086517
245,1.57328939437866,0.00126716870777293
246,1.60269975662231,0.00128566050999466
247,1.63415670394897,0.0030262452870647
248,1.67660856246948,0.00235005167336163
249,1.725426197052,0.00313797284586872
250,1.78330039978027,0.00408422803402771
251,1.84986925125122,0.00372420749186468
252,1.91615343093872,0.00472027131371712
253,1.99182271957397,0.00709951954277117
254,2.07553720474243,0.00828168579970179
255,2.15267658233643,0.00959534000056727
256,2.20872402191162,0.00729095534987715
257,2.32267427444458,0.00931401283981736
258,2.42644214630127,0.0110468574534578
259,2.42412281036377,0.0162160658480357
260,2.4597544670105,0.0135580501727684
261,2.55021047592163,0.0235927525997919
262,2.56620597839356,0.0354533883997487
263,2.6305570602417,0.026327031959008
264,2.63733911514282,0.0156445381078812
265,2.62982320785522,0.0169866443230459
266,2.61937618255615,0.0230851711914113
267,2.57242298126221,0.0234444925685387
268,2.50871181488037,0.0295172982334812
269,2.40219211578369,0.0157243431560595
270,2.33381175994873,0.0140370244163871
271,2.22610998153687,0.0101419421429444
272,2.15829563140869,0.0125391228695186
273,2.07171297073364,0.00757020497122693
274,1.95853614807129,0.00478211520351435
275,1.78156471252441,0.00265594992625638
276,1.58939361572266,0.00136794001441808
277,1.39906692504883,0.00177812365303927
278,1.234299659729,0.00109398707306887
279,1.09252786636353,0.000418140241388972
280,0.975538730621338,0.000404267930869848
281,0.878780364990234,0.000408528965624397
282,0.80103874206543,0.000316648596873971
283,0.736819744110107,0.000248709777968178
284,0.684191703796387,0.000266415026840378
285,0.640813827514648,0.000177915861014427
286,0.604805469512939,0.000179787212284439
287,0.574883937835693,0.000192604438930971
288,0.550171852111816,0.000196697495188476
289,0.529972076416016,0.000175569343657963
290,0.513125419616699,0.000215581027135035
291,0.499349594116211,0.000220836873955569
292,0.487639427185059,0.000174571900565375
293,0.478529453277588,0.000150145413425937
294,0.471454620361328,0.000176086607590818
295,0.4654541015625,0.000266408199099713
296,0.460690021514893,0.000208123988686161
297,0.45721960067749,0.000162846696356712
298,0.454708099365234,0.000143232230967377
299,0.453264236450195,0.000204931274697316
300,0.453014850616455,0.000248804837938237
301,0.452709197998047,0.000349758024021274
302,0.453435897827148,0.000337093856425046
303,0.454760551452637,0.000402400840833679
304,0.45616340637207,0.000274068145595256
305,0.459329605102539,0.000262522133393635
306,0.461533546447754,0.000295528268058828
307,0.464226722717285,0.000203524019952305
308,0.468056201934814,0.000240235084439603
309,0.471907138824463,0.000299981739064598
310,0.475308418273926,0.000180352899932901
311,0.479518890380859,0.000203040823092213
312,0.483407497406006,0.000188485230298435
313,0.486742973327637,0.000160106552550075
314,0.490991115570068,0.000201823263558992
315,0.495981693267822,0.000187027180458314
316,0.499272346496582,0.00019455423536481
317,0.503161907196045,0.000162762900174585
318,0.506519794464111,0.000161703347757465
319,0.509847640991211,0.000264283096541103
320,0.512979984283447,0.000288785432758944
321,0.515884876251221,0.00025080002706263
322,0.518013000488281,0.000251972232877682
323,0.51985502243042,0.000289408337951194
324,0.521621227264404,0.000416143084978208
325,0.52292013168335,0.000477607105435278
326,0.523539066314697,0.000349466663008174
327,0.523335933685303,0.000279691720093558
328,0.524087905883789,0.000189505429458382
329,0.522963523864746,0.000239146076356869
330,0.521210193634033,0.000294794907933985
331,0.519820213317871,0.00028111238970854
332,0.51739501953125,0.000252210347610875
333,0.515325546264648,0.000279691720093558
334,0.511803150177002,0.000252354550222778
335,0.508745193481445,0.000275847720181136
336,0.504078388214111,0.000235555625629622
337,0.500417232513428,0.00022231455436778
338,0.494919300079346,0.000277078087848997
339,0.489457607269287,0.000268448732888944
340,0.484324932098389,0.000175548621398386
341,0.478290557861328,0.000185219167881931
342,0.471909999847412,0.000148019347943807
343,0.464820384979248,0.000167781643838877
344,0.45787239074707,0.000202025949414331
345,0.450235366821289,0.000207975356777953
346,0.44243049621582,0.000210440290863531
347,0.43501615524292,0.000188755252767314
348,0.425944328308106,0.000260078718776174
349,0.41790771484375,0.000184628983159333
350,0.409312248229981,0.000256621691144716
351,0.400263786315918,0.000274446193673782
352,0.39091968536377,0.000207839746813277
353,0.381753921508789,0.000176581755443712
354,0.372722625732422,0.000193189090224976
355,0.362967967987061,0.00026579982775337
356,0.353807926177979,0.000264585763382813
357,0.344261646270752,0.000231560293741662
358,0.33399486541748,0.000335416896726017
359,0.324734210968018,0.000412278602191454
360,0.315507888793945,0.000335731287460854
361,0.305347919464111,0.000409160737051769
362,0.294746875762939,0.000385878831466905
363,0.286141395568848,0.000374880142602876
364,0.277847766876221,0.000370683772970782
365,0.26875114440918,0.000370683772970782
366,0.260723114013672,0.000247301560298391
367,0.254217624664307,0.00020153013522144
368,0.247286319732666,0.000155621415360514
369,0.239299774169922,0.000195570678242825
370,0.231626987457275,0.000244192773494713
371,0.223857879638672,0.000193687473675325
372,0.216867923736572,0.00018073575105351
373,0.208981037139893,0.000196141851436645
374,0.201692581176758,0.000157217484746713
375,0.194776058197021,0.00019875359839964
376,0.187900066375732,0.000284502004349677
377,0.180634498596191,0.000216481969209806
378,0.174464225769043,0.000239696890468774
379,0.16756010055542,0.000212419046096056
380,0.16120433807373,0.000150484246947792
381,0.155261516571045,0.000181027382167125
382,0.149915218353271,0.000186447597171873
383,0.143854141235352,0.000169531537097752
384,0.138299942016602,0.000196285543422089
385,0.13285493850708,0.000168325543053727
386,0.127364635467529,0.000121257354812861
387,0.122296810150146,0.000182029423377078
388,0.117282867431641,0.000186213305109476
389,0.112251758575439,0.000174566690630268
390,0.107659816741943,0.000150580916486455
391,0.103539943695068,0.000166418217643645
392,0.0991997718811035,0.000191339488149121
393,0.0951704978942871,0.000209187542843982
394,0.0904746055603027,0.000165733670351695
395,0.0868234634399414,0.000148237314767692
396,0.083409309387207,0.0001381972475939
397,0.0797038078308106,0.000165780309138855
398,0.0763468742370606,0.000143653871452278
399,0.0722575187683106,0.000164502599847394
400,0.0691204071044922,0.000150985047935014
401,0.0664310455322266,0.000149547566735792
402,0.0634098052978516,0.000164579984227127
403,0.0607295036315918,0.000188006920323969
404,0.0576353073120117,0.000169330239378834
405,0.0550985336303711,0.000148831258348775
406,0.0523767471313477,0.000171151994889637
407,0.0497531890869141,0.000242537210178705
408,0.0479421615600586,0.000224561446456202
409,0.0452971458435059,0.000228730787662671
410,0.0434527397155762,0.000194067451161747
411,0.0412631034851074,0.000192424916002527
412,0.0392599105834961,0.000218784611328835
413,0.0371031761169434,0.000210617412823045
414,0.0353026390075684,0.00015161022260358
415,0.0336055755615234,0.000107293658655537
416,0.0320649147033691,0.000147779520837535
417,0.0306391716003418,0.000169037259341247
418,0.0292973518371582,0.000207419230961516
419,0.0275683403015137,0.000165840645746492
420,0.0259952545166016,0.000158651397319928
421,0.0247836112976074,0.000162558815694543
422,0.023592472076416,0.000127628563059972
423,0.0222277641296387,0.000159126496825828
424,0.0207037925720215,0.000186691338742166
425,0.0198874473571777,0.000133997180576313
426,0.0187749862670898,0.000153837451990188
427,0.0182642936706543,0.000132416571302388
428,0.0168147087097168,0.000114643394643218
429,0.0163946151733398,0.000198726140556254
430,0.0153188705444336,0.000138433965705882
431,0.0141825675964355,0.000148779306530678
432,0.0135674476623535,0.000164582747282038
433,0.0129690170288086,0.000146049235673044
434,0.0123200416564941,0.00011725735010673
435,0.0109467506408691,0.000122133626015843
436,0.0110421180725098,0.000138594834324531
437,0.0101323127746582,0.000168988828450191
438,0.00943660736083984,0.000133296243359803
439,0.00911617279052734,0.000124690865450554
440,0.0082550048828125,0.000135773885965732
441,0.00823211669921875,0.000167871061634917
442,0.00748157501220703,0.000169528854700386
443,0.00712013244628906,0.000133493966854457
444,0.0066523551940918,0.000120249974068553
445,0.00628519058227539,0.000114817793491247
446,0.00571298599243164,0.000104430603603346
447,0.00541925430297852,0.0000956935076418496
448,0.00525045394897461,0.000146211056234379
449,0.00484752655029297,0.000137640018301111
450,0.00463056564331055,0.000133888537866183
451,0.00426197052001953,0.000101592056164442
452,0.00390815734863281,0.000156919277196271
453,0.00338649749755859,0.00014273927388465
454,0.00322198867797852,0.0000991890061268317
455,0.00334692001342773,0.000099862953115458
456,0.00296545028686523,0.0000922578244190808
457,0.00272560119628906,0.000128122870215663
458,0.00263118743896484,0.000089353227359249
459,0.0023198127746582,0.000116773516105671
460,0.00188922882080078,0.000101401638797871
461,0.00205278396606445,0.0000860410338080395
462,0.00161361694335937,0.000136372092679745
463,0.00160074234008789,0.0001001925534699
464,0.00163030624389648,0.000117094352453813
465,0.00149774551391602,0.000108911110087642
466,0.0014805793762207,0.000132272255511146
467,0.00089263916015625,0.000111539132261067
468,0.00103044509887695,0.000132694451377305
469,0.000875473022460938,0.000136688513264726
470,0.000661373138427734,0.0000952934932188542
471,0.000605106353759766,0.0000983371873535168
472,0.000616073608398438,0.000111541170752789
473,0.000790119171142578,0.00014087290155557
474,0.000383853912353516,0.000120868579021094
475,0.000391960144042969,0.000114383285633673
476,0.000306129455566406,0.000133973422511664
477,0.000342845916748047,0.0000889451497461881
478,0.000339984893798828,0.000111988736889465
479,0.000235080718994141,0.000125007751623099
480,0.000168323516845703,0.0000960918568857406
481,0.00008392333984375,0.000113214437383603
482,0.0000829696655273438,0.000103411018288411
483,0.00000524520874023438,0.000136665223065741
484,-0.0000395774841308594,0.000105027646314925
485,0.000768184661865234,0.000116987504769864
486,0.000481605529785156,0.0000709318312903864
487,-0.000515460968017578,0.0000872260163465089
488,-0.000392913818359375,0.000110907443817482
489,-0.000173568725585937,0.0000781402116733283
490,0.00000286102294921875,0.0000949420980875791
491,-0.000157356262207031,0.000101102972029639
492,-0.000122547149658203,0.0000928229392835943
493,-0.00000095367431640625,0.0000799395843642687
494,-0.000206470489501953,0.0000834860027012723
495,-0.000352382659912109,0.000087582408706046
496,-0.000162601470947266,0.0000765735746999581
497,-0.0002593994140625,0.0000570652764796419
498,-0.000355243682861328,0.0000920579797253891
499,-0.000263214111328125,0.0000876005795997326
500,-0.000168323516845703,0.0000611449535555721
501,-0.000128269195556641,0.0000813507111059929
502,-0.000287532806396484,0.0000672881267319954
503,-0.000238895416259766,0.000086684746213206
504,-0.000363826751708984,0.0000639655320434448
505,-0.0000958442687988281,0.0000954103373332536
506,-0.000401020050048828,0.0001064212515141
507,-0.000319957733154297,0.000114265943914415
508,-0.000166416168212891,0.00009631638468134
509,-0.000408649444580078,0.0000800092398315892
510,-0.000110626220703125,0.0000735860318313236
511,-0.000178813934326172,0.0000760088002756068
512,-0.000237941741943359,0.0000935306088347708
513,-0.000150680541992187,0.000112969153556525
514,-0.0000700950622558594,0.000120183776385196
515,-0.000138282775878906,0.000103129195878435
516,-0.000164508819580078,0.000103948313138854
517,-0.0000677108764648438,0.0000754608927047666
518,-0.000197887420654297,0.0000946422663000558
519,-0.0000710487365722656,0.0000801639706417545
520,-0.000105381011962891,0.000085464331448496
521,-0.0000886917114257813,0.0000764413244601088
522,-0.000178337097167969,0.0000934795437228611
523,-0.0000920295715332031,0.0000904986176107968
524,-0.000156879425048828,0.0000929453356806578
525,-0.0000905990600585938,0.000110309245374175
526,0.0000553131103515625,0.00010884846108235
527,0.0000233650207519531,0.0000904986176107968
528,0.0000524520874023438,0.0000928841576428295
529,0.000205516815185547,0.0000849198651103353
530,-0.0000147819519042969,0.000103983305208228
531,0.0000405311584472656,0.000113998990318482
532,0.00022125244140625,0.000106500274299225
533,0.0000758171081542969,0.0000865140835254025
534,-0.000003814697265625,0.0000951024188008953
535,0.000210762023925781,0.0000859841987269297
536,0.0000896453857421875,0.000072479248046875
537,0.0000863075256347656,0.0000673438588914439
538,0.0000514984130859375,0.0000633422124406092
539,0.000187397003173828,0.0000850683370492908
540,0.000222682952880859,0.0000876057705913877
541,0.0000729560852050781,0.0000749969506676054
542,0.000194072723388672,0.0000722341408481564
543,0.000143051147460937,0.000102749279793973
544,0.000219345092773437,0.0000903628432073568
545,0.000156879425048828,0.0000870146159691556
546,0.000235080718994141,0.0000832364299116122
547,0.000157833099365234,0.0000985635209242625
548,0.0001678466796875,0.0000822651206520258
549,0.000198841094970703,0.000074441596019312
550,0.000214576721191406,0.000103036554939475
551,0.000177383422851562,0.000097501248044738
552,0.000314235687255859,0.00010537777546189
553,0.000246047973632812,0.000100158507180146
554,0.000255107879638672,0.0000627398841987554
555,0.000310897827148437,0.0000785610020699271
556,0.000388622283935547,0.0000903452278820589
557,0.000134944915771484,0.0000888300401473619
558,0.000369548797607422,0.0000893939326639556
559,0.000351428985595703,0.0000815293936436881
560,0.000370502471923828,0.0000914881398893663
561,0.000324726104736328,0.0000752375904972688
562,0.000288963317871094,0.0000695332570402458
563,0.000328540802001953,0.0000635858372338648
564,0.000299930572509766,0.0000749135305354771
565,0.000257015228271484,0.0000710567367453109
566,0.000314235687255859,0.00010428680474442
567,0.000443458557128906,0.0000785277113616327
568,0.000558376312255859,0.0000511428692533106
569,0.000448703765869141,0.0000770354004926849
570,0.000469684600830078,0.0000807278408329736
571,0.000438213348388672,0.0000711015210794032
572,0.000517845153808594,0.0000640117255287067
573,0.000547885894775391,0.000061419513587122
574,0.000655651092529297,0.0000787532332356268
575,0.000454425811767578,0.000057785896182021
576,0.000529289245605469,0.0000747114205356578
577,0.000557422637939453,0.0000865482429850649
578,0.000732421875,0.000070119386461837
579,0.000225067138671875,0.0000804683013942283
580,0.000619888305664063,0.0000656149414730943
581,0.000500679016113281,0.0000810019885698206
582,0.000855445861816406,0.0000693744808132421
583,-0.000104904174804687,0.0000724463011495834
584,0.000565052032470703,0.000079647508089495
585,0.000751495361328125,0.0000538688827881575
586,0.000353813171386719,0.0000694072479040609
587,0.00055694580078125,0.0000828887830219997
588,0.000505447387695313,0.0000676066980687554
589,0.000402927398681641,0.0000677377352030936
590,0.000510692596435547,0.0000588193662456866
591,0.000461101531982422,0.0000618051595536028
592,0.000589370727539063,0.0000658018001384876
593,0.000712394714355469,0.0000497192779454692
594,0.000375747680664062,0.0000664225774740824
595,0.000597000122070313,0.0000686281160540715
596,0.000398635864257812,0.0000876031751340097
597,0.0004119873046875,0.000105920120344153
598,0.000485897064208984,0.0000705654553744733
599,0.0007476806640625,0.0000802886733760813
600,0.000452995300292969,0.0000673219093060346
601,0.000495433807373047,0.0000654153848252965
602,0.000570774078369141,0.0000558551179459554
603,0.000553131103515625,0.0000757931125503714
604,0.000505447387695313,0.0000546597666965756
605,0.000434398651123047,0.0000594126470073372
606,0.000570297241210938,0.0000703039753981592
607,0.000546455383300781,0.0000813898314309787
608,0.000535011291503906,0.0000531807057305621
609,0.000390529632568359,0.0000609036981992323
610,0.000740528106689453,0.0000611430942268841
611,0.000385761260986328,0.0000647691617355639
612,0.000566959381103516,0.000050775881143027
613,0.000444412231445313,0.0000618842048950324
614,0.000559329986572266,0.0000653232100179036
615,0.000565528869628906,0.0000739743350554249
616,0.000435829162597656,0.0000740603481811765
617,0.000414371490478516,0.000081956364891743
618,0.000428199768066406,0.0000648481004141415
619,0.000274658203125,0.0000588821491625104
620,0.000485897064208984,0.0000639246407503849
621,0.000373363494873047,0.0000603194293278923
622,0.000418186187744141,0.0000673573627734508
623,0.000470161437988281,0.0000856264651748655
624,0.000539779663085938,0.0000730790865351411
625,0.000382900238037109,0.0000791492230272157
626,0.000366687774658203,0.0000742596374252171
627,0.000524044036865234,0.0000870067764614169
628,0.000415802001953125,0.0000970360687963766
629,0.000478267669677734,0.0000571309820586658
630,0.000534534454345703,0.0000554496215152196
631,0.000442028045654297,0.0000600994552492239
632,0.000430107116699219,0.000064235115694364
633,0.000427722930908203,0.0000505941976726572
634,0.000471591949462891,0.0000815224212074828
635,0.000370502471923828,0.0000821959937717173
636,0.000411033630371094,0.0000656322655503528
637,0.000466823577880859,0.0000475536001699205
638,0.000339031219482422,0.0000547190117333473
639,0.000471115112304688,0.0000710775329810565
640,0.00045013427734375,0.0000663694976202302
641,0.000445842742919922,0.0000978736580823633
642,0.000412464141845703,0.0000895819541040127
643,0.000484466552734375,0.0000759519421718118
644,0.000352859497070312,0.000083970739243918
645,0.000315189361572266,0.0000880433037954089
646,0.0004119873046875,0.0000924449401817608
647,0.000375270843505859,0.0000832091088218223
648,0.000332355499267578,0.0000760596372874743
649,0.000352859497070312,0.0000803481223605113
650,0.000369071960449219,0.000068586689461185
651,0.00031280517578125,0.0000693039791069953
652,0.000405311584472656,0.0000721664328897253
653,0.000470638275146484,0.0000573276469502846
654,0.000514030456542969,0.0000562182718398647
655,0.000344276428222656,0.0000712277250806513
656,0.00301408767700195,0.0000663403712823436
657,-0.00138616561889648,0.000058670350881302
658,-0.0000238418579101562,0.0000621664729698301
659,0.000307559967041016,0.0000673404824978246
660,0.000395298004150391,0.0000527600437984444
661,0.000469207763671875,0.0000614102579452444
662,0.000439643859863281,0.0000685667958062772
663,0.000342845916748047,0.0000988974520544694
664,0.000293254852294922,0.0000735489436529848
665,0.000396251678466797,0.000090473489575435
666,0.000313758850097656,0.0000938339928163761
667,0.000320911407470703,0.0000928449825429668
668,0.000435829162597656,0.0000543918429365067
669,0.000365734100341797,0.0000667231336582634
670,0.000397682189941406,0.0000710919268113628
671,0.000332832336425781,0.0000552267189175268
672,0.000371932983398437,0.0000658708725347038
673,0.000368595123291016,0.0000743743690809068
674,0.000407695770263672,0.0000725654666462623
675,0.00034332275390625,0.0000749529770779746
676,0.000392436981201172,0.0000477027854934685
677,0.000453472137451172,0.0000554424450968484
678,0.000369071960449219,0.0000572671302559807
679,0.000375747680664062,0.0000600493057316587
680,0.000431537628173828,0.0000676974430996754
681,0.000417709350585938,0.0000635572239633266
682,0.000419139862060547,0.000065564675763171
683,0.000424861907958984,0.0000643606527252855
684,0.000507831573486328,0.0000618860419575028
685,0.000494480133056641,0.0000486397275176047
686,0.000435829162597656,0.0000717319055600807
687,0.000468254089355469,0.0000561403616140506
688,0.000541210174560547,0.0000451751305912969
689,0.000546455383300781,0.0000712803770434365
690,0.000528335571289063,0.0000727672876622593
691,0.000523567199707031,0.0000566483748078271
692,0.000604629516601563,0.0000630255353804572
693,0.000530719757080078,0.0000615101451743969
694,0.000511646270751953,0.0000588116344853843
695,0.000585556030273438,0.0000692465410069147
696,0.000520229339599609,0.0000647463393107817
697,0.000579357147216797,0.0000693089001578381
698,0.000484943389892578,0.0000750105924021283
699,0.000445842742919922,0.0000805007895849945
700,0.000488758087158203,0.0000703944733811526
701,0.000476837158203125,0.0000621993817305815
702,0.000435829162597656,0.000065291875764793
703,0.000380516052246094,0.0000525754864206064
704,0.000370502471923828,0.000058928468995951
705,0.000344753265380859,0.0000574722314092974
706,0.000268459320068359,0.0000724290372697736
707,0.00035858154296875,0.0000650930752222126
708,0.000268936157226562,0.0000597427675143204
709,0.0002288818359375,0.000067793097744048
710,0.000239372253417969,0.0000504603220803339
711,0.000276565551757812,0.00005900462455085
712,0.000282764434814453,0.0000663146609487491
713,0.000285148620605469,0.0000651000609568563
714,0.000264644622802734,0.000065324950369048
715,0.000286102294921875,0.0000706893999494685
716,0.0003204345703125,0.0000723096469393439
717,0.000353813171386719,0.0000584276335572877
718,0.000309944152832031,0.0000590546986610574
719,0.000385761260986328,0.0000715080875638752
720,0.000352859497070312,0.0000483831135369128
721,0.000426292419433594,0.0000577169967940016
722,0.000482082366943359,0.0000681093071936048
723,0.000419139862060547,0.0000805897119076652
724,0.000434398651123047,0.0000529493258224576
725,0.000485897064208984,0.0000607438886234061
726,0.000504970550537109,0.0000524943354995018
727,0.00052642822265625,0.0000628340393448987
728,0.000492572784423828,0.0000572284057185268
729,0.000559329986572266,0.0000602609738595707
730,0.000504493713378906,0.0000674298998059341
731,0.000543594360351563,0.0000695218111019613
732,0.000517368316650391,0.0000584694526836597
733,0.000553607940673828,0.0000751665381741695
734,0.000539302825927734,0.0000669799222914629
735,0.00046539306640625,0.000061801480565561
736,0.000518321990966797,0.0000722231229478703
737,0.000509738922119141,0.0000634103783030674
738,0.000452518463134766,0.0000592727960038254
739,0.000442028045654297,0.0000581584971942494
740,0.000408172607421875,0.0000602052941781558
741,0.000362396240234375,0.0000638552434943559
742,0.000370979309082031,0.0000666310617257788
743,0.000380992889404297,0.0000591162701086805
744,0.000383377075195312,0.0000542034034654626
745,0.000304222106933594,0.0000758276038432473
746,0.000313758850097656,0.0000703007411727223
747,0.000339984893798828,0.0000780674323683083
748,0.000323295593261719,0.0000628629817874031
749,0.000309467315673828,0.0000782187372617743
750,0.000386714935302734,0.0000604220607043012
751,0.000424385070800781,0.0000537970801055148
752,0.0003814697265625,0.0000537505684343843
753,0.000414848327636719,0.0000547460144928831
754,0.000384330749511719,0.000065059882739298
755,0.000440597534179688,0.0000666668825871501
756,0.000404834747314453,0.0000475368622585942
757,0.000472545623779297,0.0000689685239096243
758,0.00049591064453125,0.0000589776439587965
759,0.000490188598632813,0.0000497295664666234
760,0.000527858734130859,0.000058064592132144
761,0.000568866729736328,0.0000643376853907882
762,0.000479698181152344,0.0000641607387262625
763,0.000521659851074219,0.0000679923640500299
764,0.000529766082763672,0.0000770663855143906
765,0.000558853149414063,0.0000612378480115462
766,0.0005645751953125,0.0000497055566045302
767,0.000515460968017578,0.0000605047920538015
768,0.000567436218261719,0.0000398501517276207
769,0.000563144683837891,0.0000481416646346267
770,0.000498294830322266,0.0000530994092465613
771,0.000603199005126953,0.0000542180833575646
772,0.00052642822265625,0.0000640862754381241
773,0.000465869903564453,0.000071512856942435
774,0.000388622283935547,0.0000571985997726576
775,0.000484943389892578,0.0000696704616273074
776,0.000566959381103516,0.000071769932725975
777,0.0004425048828125,0.0000738266508386349
778,0.000435352325439453,0.000075293478136065
779,0.000398635864257812,0.0000497649884248724
780,0.000424861907958984,0.0000506211548884972
781,0.000336170196533203,0.000057911671645599
782,0.000410079956054688,0.000052492169757582
783,0.000347614288330078,0.0000601646816085339
784,0.000344276428222656,0.0000604775408162388
785,0.000312328338623047,0.0000651576646901654
786,0.000399589538574219,0.0000687307462567415
787,0.000302314758300781,0.000072889047876938
788,0.000364780426025391,0.0000704687240673491
789,0.000314712524414062,0.0000612155661983119
790,0.000291347503662109,0.000057771138944922
791,0.000395298004150391,0.0000671104892187469
792,0.000297069549560547,0.0000750363533562283
793,0.000409126281738281,0.0000648060117513178
794,0.000346183776855469,0.0000605367261582281
795,0.000413417816162109,0.0000648831534439522
796,0.000342845916748047,0.000056625290914047
797,0.000330924987792969,0.0000533152136219444
798,0.000363826751708984,0.0000663643586071274
799,0.000338077545166016,0.0000502842814184161
800,0.000432014465332031,0.0000546857592638807
801,0.000369548797607422,0.0000598045810513044
802,0.000488758087158203,0.000048093229392985
803,0.000413894653320313,0.0000358032950820184
804,0.000441074371337891,0.0000756670107863131
805,0.000401496887207031,0.0000734081474225075
806,0.000423431396484375,0.0000632002638958989
807,0.000469684600830078,0.0000513314702485122
808,0.000435352325439453,0.0000630652069754236
809,0.000437259674072266,0.0000741094537176686
810,0.000332832336425781,0.0000814387054109017
811,0.000412464141845703,0.0000582444438346957
812,0.000383853912353516,0.0000566523884379021
813,0.000352859497070312,0.0000758216064846075
814,0.000356674194335937,0.0000624474651809573
815,0.000365734100341797,0.000076223877680166
816,0.000349044799804687,0.0000649427001732798
817,0.000274181365966797,0.0000676588073180321
818,0.000233650207519531,0.000053748453311179
819,0.000298976898193359,0.0000686893815601983
820,0.000311374664306641,0.000069166047532916
821,0.000289440155029297,0.000073208093158287
822,0.000281810760498047,0.0000635447016060061
823,0.000300884246826172,0.0000595330762347401
824,0.000321865081787109,0.0000696998274712362
825,0.000295162200927734,0.0000527665077737773
826,0.000300884246826172,0.0000515271036266412
827,0.000311851501464844,0.0000517560553983465
828,0.000283241271972656,0.0000625493311982766
829,0.000285625457763672,0.0000663095176857834
830,0.000219821929931641,0.0000679070358038413
831,0.000306129455566406,0.0000722325669652951
832,0.000319957733154297,0.0000857127226684946
833,0.000285148620605469,0.0000817188157511336
834,0.000399589538574219,0.0000918205635216592
835,0.000394821166992187,0.0000699944325269898
836,0.000366687774658203,0.000067218819376778
837,0.000329017639160156,0.0000919912683500245
838,0.000394344329833984,0.000093170124938586
839,0.000421524047851563,0.000071953447379833
840,0.000468730926513672,0.0000659777918421091
841,0.000555038452148438,0.0000714890068677522
842,0.000494480133056641,0.0000649864497236354
843,0.000518798828125,0.0000632721763773698
844,0.000491142272949219,0.0000727391602066178
845,0.000542163848876953,0.0000670816846143342
846,0.000520706176757813,0.0000569695694496342
847,0.000567913055419922,0.0000673809880548695
848,0.000603199005126953,0.0000559141130426339
849,0.000591278076171875,0.0000686794503259152
850,0.000597953796386719,0.0000678199239201958
851,0.000610828399658203,0.000081589331998439
852,0.000567436218261719,0.0000711175086498343
853,0.000569343566894531,0.0000530340679679843
854,0.000566959381103516,0.0000504704595381351
855,0.000592231750488281,0.0000859088012441791
856,0.000539779663085938,0.0000642103329442554
857,0.000581741333007813,0.0000642811154525951
858,0.000617504119873047,0.0000610211848122936
859,0.000555992126464844,0.0000771356878429077
860,0.000542163848876953,0.0000660570072394373
861,0.000514030456542969,0.000070806705498302
862,0.000491619110107422,0.0000787893145480472
863,0.000469207763671875,0.0000620419934526485
864,0.0004425048828125,0.0000670935468314585
865,0.000426769256591797,0.0000597741577599798
866,0.000459194183349609,0.0000880717069442305
867,0.000487804412841797,0.00005430817278285
868,0.000350475311279297,0.0000731956686865342
869,0.000455856323242188,0.0000710423357851741
870,0.000341892242431641,0.0000762089613618141
871,0.000295162200927734,0.0000694056099169247
872,0.000330448150634766,0.0000804230786009724
873,0.000348567962646484,0.0000633170802028573
874,0.000348567962646484,0.000073127296358811
875,0.000355720520019531,0.0000731210775224737
876,0.000333309173583984,0.0000641784553464334
877,0.000298976898193359,0.000063828532151318
878,0.000385284423828125,0.0000595626683245534
879,0.000406265258789063,0.0000625093322032154
880,0.000381946563720703,0.0000650581352974074
881,0.000317573547363281,0.0000491211710345303
882,0.000311851501464844,0.0000631840723080768
883,0.000475883483886719,0.0000679840032708767
884,0.000449180603027344,0.000083885401039854
885,0.000414848327636719,0.0000903552942027455
886,0.000467300415039063,0.0000847992916218506
887,0.000484943389892578,0.0000720245125303694
888,0.000528812408447266,0.0000784292040107877
889,0.000451564788818359,0.0000684755426045704
890,0.000537395477294922,0.0000641022391388171
891,0.000579357147216797,0.000086629645801419
892,0.000516414642333984,0.0000887327201952484
893,0.000584125518798828,0.0000770855604768716
894,0.000561237335205078,0.0000860291412003933
895,0.000598907470703125,0.0000601864080197834
896,0.000683784484863281,0.000060430527064504
897,0.000651359558105469,0.0000724619920165776
898,0.000717639923095703,0.0000966463169872912
899,0.000668525695800781,0.0000916023914456224
900,0.000822544097900391,0.0000818119727425175
901,0.000696182250976563,0.0000626782447449525
902,0.000775337219238281,0.0000598938600982427
903,0.000670909881591797,0.0000708709001674241
904,0.000758647918701172,0.0000727454116921871
905,0.000727653503417969,0.0000793887328883069
906,0.000640869140625,0.0000677561944096206
907,0.000761508941650391,0.0000760686049980859
908,0.000686168670654297,0.0000900376644757792
909,0.000631809234619141,0.0000729108807508369
910,0.000780582427978516,0.0000621591575458262
911,0.000578403472900391,0.0000978085886852405
912,0.000662326812744141,0.000101820086945109
913,0.000525951385498047,0.00011302750695496
914,0.000601768493652344,0.0000753297074070831
915,0.000641822814941406,0.0000628503211087682
916,0.000515460968017578,0.0000994339826365891
917,0.000640392303466797,0.0000953769679069996
918,0.000558376312255859,0.000139546376017653
919,0.000575065612792969,0.000111807891831788
920,0.000555515289306641,0.000106239490063733
921,0.000444412231445313,0.000100606990492862
922,0.000361442565917969,0.0000784567405746579
923,0.000470161437988281,0.0000839030176179493
924,0.000410556793212891,0.0000686446796910404
925,0.000399589538574219,0.0000910696556788667
926,0.000452041625976563,0.000104999498926859
927,0.000434398651123047,0.000097417259588071
928,0.000374794006347656,0.0000758171081542969
929,0.000224113464355469,0.000100530120491825
930,0.000417709350585938,0.0000819535905187664
931,0.000362873077392578,0.0000974849226230668
932,0.000159740447998047,0.0000987271731535978
933,0.000226020812988281,0.0000682327148688634
934,0.000272750854492187,0.0000815363654836581
935,0.00029754638671875,0.000123860230217394
936,0.000294208526611328,0.00013287595962219
937,0.000270366668701172,0.0000764829559322078
938,0.000318527221679687,0.0000578694494423927
939,0.000323772430419922,0.000102361290104097
940,0.000352382659912109,0.000121661709358382
941,0.000200271606445312,0.000105664359927861
942,0.000218391418457031,0.0000993745111779195
943,0.000265598297119141,0.0000899997767441103
944,0.000452041625976563,0.000131451473323747
945,0.000237941741943359,0.000153958601310892
946,0.000361919403076172,0.000097370568030755
947,0.000375747680664062,0.000136907911783207
948,0.00042724609375,0.00013858170919222
949,0.000414371490478516,0.000152584910363657
950,0.000492572784423828,0.000143206829551798
951,0.000517845153808594,0.000103624076335966
952,0.000479221343994141,0.000101161427354249
953,0.000367164611816406,0.000084115480337703
954,0.000520229339599609,0.0000658035278320313
955,0.000360488891601562,0.0000985127566118624
956,0.000425815582275391,0.000117729539656233
957,0.000298976898193359,0.00011562686589224
958,0.000475883483886719,0.000149310194326637
959,0.000451564788818359,0.000165007705538184
960,0.000567436218261719,0.000132663604556819
961,0.000640392303466797,0.000154271375685815
962,0.000540256500244141,0.000124109638099651
963,0.000401496887207031,0.0001617230321843
964,0.000575542449951172,0.000157792037047931
965,0.000531196594238281,0.000163292883086124
966,0.000420570373535156,0.000134474842090821
967,0.000530242919921875,0.000150758988446147
968,0.000699996948242188,0.000113925169043766
969,0.000500679016113281,0.000116123310303471
970,0.000608921051025391,0.000167352860287464
971,0.0004425048828125,0.000143862647805276
972,0.000665187835693359,0.000155056416962883
973,0.000617504119873047,0.000140960032454711
974,0.000669479370117188,0.000103972371451617
975,0.000493526458740234,0.0000853791545677868
976,0.000455856323242188,0.000111877013214507
977,0.000690937042236328,0.000138414254659145
978,0.000463485717773438,0.000158599794977591
979,0.000189304351806641,0.000149827061070954
980,0.000511646270751953,0.00019054403295505
981,0.000402927398681641,0.000162653900598395
982,0.00030517578125,0.000218846957930336
983,0.00037384033203125,0.000182817152643705
984,0.000421047210693359,0.000143409914898487
985,0.000309944152832031,0.000138853801470771
986,0.000147342681884766,0.000152596831059797
987,0.000490188598632813,0.000135763837696679
988,0.000262737274169922,0.000194586955945692
989,0.0000295639038085937,0.000178191691804911
990,0.000313758850097656,0.000180539389392282
991,0.000113010406494141,0.000216603771171368
992,0.000372409820556641,0.000216103525993067
993,0.000319957733154297,0.000189802753239319
994,0.000350475311279297,0.000202394766157262
995,0.000238418579101562,0.000235740883720098
996,-0.000311374664306641,0.000201064764426308
997,-0.00000286102294921875,0.000270285501692578
998,-0.00000524520874023438,0.000235625114482787
999,0.000301837921142578,0.000262071367949809
1000,0.000408649444580078,0.000249097102620155
1001,-0.0000457763671875,0.000300375618841945
1002,0.000390052795410156,0.000281151211131108
1003,-0.0000300407409667969,0.000234530212496862
1004,0.000277519226074219,0.000191244398446325
1005,-0.000267505645751953,0.000247617638335244
1006,0.000592708587646484,0.000310341506954751
1007,0.0000767707824707031,0.000253634341613676
1008,0.000257968902587891,0.000267382795850755
1009,0.000026702880859375,0.000211659845081515
1010,-0.000359535217285156,0.000176597206443912
1011,0.00028228759765625,0.000226006728751538
1012,-0.000210762023925781,0.000262445904434928
1013,0.000316143035888672,0.000337697677910145
1014,0.0000758171081542969,0.000313508011749615
1015,0.000260353088378906,0.000286229423252931
1016,-0.000592708587646484,0.000267267120830913
1017,-0.000360965728759766,0.000343121363594723
1018,0.00000143051147460937,0.000287231759015653
1019,0.0000247955322265625,0.000382231904598247
1020,-0.000200271606445312,0.00032176581370777
1021,0.0000524520874023438,0.000321522636500633
1022,0.000200271606445312,0.000279509561343247
1023,-0.00095367431640625,0.000268096153071451
1024,-0.000104904174804687,0.000301560203343995
1025,-0.000277996063232422,0.000430891966041063
1026,0.0000057220458984375,0.000477348053943223
1027,-0.000567913055419922,0.00034343929432074
1028,0.000200748443603516,0.000327525695304526
1029,-0.0000691413879394531,0.000393172984157026
1030,-0.000798702239990234,0.000309519844123044
1031,0.000150680541992187,0.000611946882079476
1032,-0.000458240509033203,0.000567275112586569
1033,-0.000536918640136719,0.000515817039303142
1034,0.000110149383544922,0.000456019894928913
1035,-0.000290870666503906,0.000442587088479822
1036,-0.000726222991943359,0.000445650691726997
1037,-0.000754833221435547,0.000458597377705076
1038,-0.000749588012695313,0.000458676699227368
1039,0.000209331512451172,0.000466914893737368
1040,-0.00157690048217773,0.000565669571354655
1041,-0.000751972198486328,0.000746570463571194
1042,-0.00155973434448242,0.000886176425557601
1043,-0.000211238861083984,0.000569055155127205
1044,-0.00133037567138672,0.000433685951267321
1045,0.000241279602050781,0.000661198297945348
1046,-0.00057220458984375,0.00074690174868899
1047,-0.00281524658203125,0.000779188685209123
1048,-0.000320911407470703,0.000696869080244675
1049,-0.00113630294799805,0.000612932945313553
1050,-0.00101518630981445,0.000546913720360973
1051,-0.000794410705566406,0.000563504518347629
1052,-0.00124406814575195,0.000729415604836878
1053,-0.000927448272705078,0.000892785867226048
1054,-0.00245189666748047,0.000961712341651359
1055,-0.00116443634033203,0.000855139078779523
1056,-0.000857830047607422,0.000876417876023827
1057,-0.000477313995361328,0.000996563651005585
1058,-0.00127124786376953,0.000834032764192386
1059,-0.00161457061767578,0.000927826600761008
1060,-0.00259685516357422,0.0012563738888768
1061,-0.00243330001831055,0.00143708309057264
1062,-0.00222969055175781,0.00133812707356965
1063,-0.00118494033813477,0.00119292116001538
1064,-0.00261354446411133,0.00120411570278506
1065,-0.00174140930175781,0.0014203383793797
1066,-0.00150012969970703,0.000943333832768172
1067,0.000216960906982422,0.00100540252606768
1068,-0.00450372695922852,0.0011898676129714
1069,-0.00226163864135742,0.00158827063457959
1070,-0.0020899772644043,0.00172377048191187
1071,-0.00136089324951172,0.00195913581985375
1072,0.000146865844726562,0.00123091243131977
1073,-0.00343513488769531,0.00101324563813112
1074,0.000717639923095703,0.00113203350775094
1075,-0.00150918960571289,0.00103033553745361
1076,-0.00403118133544922,0.00124096739876099
1077,-0.0028223991394043,0.00128069335487449
1078,-0.000907421112060547,0.00193148787292749
1079,0.000714778900146484,0.00138346821653287
1080,-0.00205230712890625,0.00206027557973532
1081,-0.00399017333984375,0.00243103686271232
1082,-0.00199413299560547,0.0026812519061253
1083,0.000830173492431641,0.00148908113776168
1084,-0.00354957580566406,0.00176863780845309
1085,-0.00341558456420898,0.00187092915330653
1086,0.000680923461914063,0.0019537805410806
1087,0.000149250030517578,0.0021029468004592
1088,-0.00131511688232422,0.00221657218298524
1089,-0.00259208679199219,0.00222940255451526
1090,0.0002899169921875,0.00234126714484765
1091,-0.00328302383422852,0.00209856894685711
1092,-0.00370883941650391,0.00245685458192514
1093,0.000973701477050781,0.00212738385143441
1094,-0.0000996589660644531,0.0025163126503213
1095,-0.00109243392944336,0.00251279410721398
1096,-0.0041813850402832,0.00258693857494591
1097,-0.000562667846679688,0.00254190542547093
1098,-0.000494956970214844,0.00276099766458998
1099,-0.00799226760864258,0.00312376892159674
1100,0.000233173370361328,0.00244493229868834
