Wavelength (nm),Absorbance (AU),Std.Dev.
190,0.497326374053955,0.166319804057363
191,0.775856971740723,0.171360981196026
192,1.10784816741943,0.208564121842473
193,0.942466259002686,0.162444354580148
194,0.774247169494629,0.283902692000958
195,1.34710645675659,0.569937804994984
196,1.63418006896973,0.595213041232402
197,1.49834251403809,0.484130797816593
198,1.56380176544189,0.411743580252208
199,1.33068609237671,0.271940657481382
200,1.56945323944092,0.231760317674603
201,1.73653078079224,0.342566098705669
202,2.93557786941528,0.577583678157059
203,2.64111375808716,0.362103264848665
204,3.23125171661377,0.51561020338618
205,3.12958240509033,0.318922048772673
206,3.21659898757935,0.132658027124801
207,3.12410593032837,0.0830221724711307
208,3.09537315368652,0.0881912177455962
209,3.14978551864624,0.0556490693897948
210,3.13927316665649,0.057305998887943
211,3.10761213302612,0.0392611222271648
212,3.00785684585571,0.0396884359414584
213,3.28419971466064,0.0475817488870306
214,3.08021259307861,0.04751531053042
215,3.08912134170532,0.0446824034872396
216,3.0267128944397,0.0672216284369243
217,3.0760235786438,0.122643187003434
218,3.20505332946777,0.0760669474621916
219,2.91379690170288,0.0444067570055394
220,2.89000749588013,0.045178550836525
221,2.86551713943481,0.0464958112737418
222,2.72291994094849,0.0345620700471428
223,2.63589525222778,0.0276504751954453
224,2.59117269515991,0.0141543672501204
225,2.50080251693726,0.0114124317923406
226,2.38420677185059,0.00918472638725129
227,2.27429914474487,0.00729593538038285
228,2.1802077293396,0.0073875234600282
229,2.09767913818359,0.00435771353996676
230,1.99922657012939,0.00200332269109641
231,1.92406892776489,0.0010760962811071
232,1.84919595718384,0.00176326515307028
233,1.77770662307739,0.00243992760703792
234,1.71735286712646,0.00184946343189559
235,1.66386365890503,0.00191280347911089
236,1.61884355545044,0.00108603030947096
237,1.5840015411377,0.000793823744321873
238,1.55446577072144,0.0013312145719269
239,1.52862453460693,0.00158210171436634
240,1.51433849334717,0.000875254834480875
241,1.50331878662109,0.000710763173685851
242,1.49941492080688,0.000970178839596713
243,1.50333023071289,0.00105878295298539
244,1.51176309585571,0.000827006660029556
245,1.52846527099609,0.00101928825149929
246,1.55294847488403,0.000844832727894071
247,1.58679914474487,0.00160075533693712
248,1.62775993347168,0.00203234239694488
249,1.67221450805664,0.0021107930256092
250,1.7259840965271,0.00189663740458009
251,1.78146934509277,0.00295477299901918
252,1.84828472137451,0.00330161552494939
253,1.92731189727783,0.00451103073092483
254,1.99641275405884,0.0080457671800999
255,2.07316160202026,0.00804414647332353
256,2.12698602676392,0.00738462335085783
257,2.21731567382812,0.010230446272538
258,2.30357933044434,0.0139272544049542
259,2.35218048095703,0.0119933693766269
260,2.39374542236328,0.0195110216293055
261,2.42392539978027,0.0204175141865772
262,2.45714855194092,0.0174769563182921
263,2.48994827270508,0.0192468924057639
264,2.51207494735718,0.0230360619992937
265,2.51880645751953,0.0285649747882387
266,2.49772310256958,0.0307830252353332
267,2.43178987503052,0.0208204149884248
268,2.38497304916382,0.0133473155598062
269,2.29997158050537,0.0106549623108497
270,2.21073341369629,0.00927533579730025
271,2.14018249511719,0.00879965250131103
272,2.06259679794312,0.00605356759819942
273,1.97147607803345,0.00422819916067334
274,1.84829759597778,0.00321768753330715
275,1.68184232711792,0.00302862939914871
276,1.50704765319824,0.00232018906814103
277,1.33447360992432,0.00107243888962924
278,1.18310976028442,0.00081634521484375
279,1.05290031433105,0.000680803240252801
280,0.946620941162109,0.00038822862076077
281,0.857281684875488,0.000333709708075573
282,0.786203861236572,0.000364408428026112
283,0.726515293121338,0.000262411247587888
284,0.677473545074463,0.00021230341125489
285,0.637415409088135,0.000188885304248765
286,0.603246688842773,0.000246682937201224
287,0.575146675109863,0.000280756276534036
288,0.551406860351563,0.000175118081174902
289,0.532049179077148,0.000203112480346285
290,0.515780448913574,0.000248380443293471
291,0.50193977355957,0.000218946675565188
292,0.491085529327393,0.000148169810035974
293,0.48216724395752,0.000179417545057754
294,0.474735260009766,0.000191553267391415
295,0.46863317489624,0.000161086291583994
296,0.463695049285889,0.000159471912420259
297,0.460220813751221,0.000266175951708848
298,0.457587242126465,0.00028768736131665
299,0.455951690673828,0.000240409170599347
300,0.454991817474365,0.000354418019083769
301,0.45488166809082,0.000203881205239301
302,0.455302715301514,0.00020410412862068
303,0.456214427947998,0.000274399794771019
304,0.457164287567139,0.000220935693458873
305,0.45986270904541,0.00018614491437626
306,0.4619140625,0.000197131655543583
307,0.464391708374023,0.000201186858933933
308,0.467929363250732,0.000198217484386697
309,0.470897674560547,0.000291331504594765
310,0.473604202270508,0.000204602595616977
311,0.477909088134766,0.000212594519472878
312,0.481059074401856,0.000214222509699748
313,0.484570503234863,0.000226240011550514
314,0.48858118057251,0.000206553616429653
315,0.492490768432617,0.000199119341172798
316,0.494781970977783,0.000201886343186586
317,0.49926233291626,0.000173568725585937
318,0.502148151397705,0.000276433979175791
319,0.504922389984131,0.000270265311293898
320,0.507369995117188,0.000220853346943355
321,0.509885311126709,0.000252376173508043
322,0.511773109436035,0.000250734743833701
323,0.5128493309021,0.000296787369807586
324,0.514473915100098,0.000291431386831211
325,0.515578746795654,0.000249615029653785
326,0.515830993652344,0.000203327300586493
327,0.51591157913208,0.000299076887990302
328,0.515057563781738,0.000317308527249222
329,0.513373851776123,0.000274519090390641
330,0.512362003326416,0.00025013188426181
331,0.510159969329834,0.000327181182830972
332,0.506844520568848,0.000230946762893035
333,0.504802227020264,0.000201412764436318
334,0.501307964324951,0.000253526743290913
335,0.49699878692627,0.00016544256722457
336,0.493171215057373,0.000221769780387394
337,0.488001823425293,0.000286711996827905
338,0.482866287231445,0.000183705499111993
339,0.477476596832275,0.0002078266185723
340,0.471518993377686,0.000312275554477281
341,0.46573543548584,0.000334450197161923
342,0.458563327789307,0.000205529537824969
343,0.451639175415039,0.000194104939441647
344,0.444784164428711,0.000234180937583536
345,0.436647415161133,0.000282525915636777
346,0.428701400756836,0.000152244778152431
347,0.420990943908691,0.000139458361895988
348,0.412351131439209,0.000223729636853893
349,0.403863430023193,0.00018147898539666
350,0.395022869110107,0.000217984999917032
351,0.3861403465271,0.000228937460180221
352,0.376736640930176,0.00020089280200264
353,0.367354393005371,0.000179615133163354
354,0.358463764190674,0.000256394767973427
355,0.349122524261475,0.000203170683255892
356,0.339778423309326,0.000209799679663727
357,0.330522537231445,0.000236103259742568
358,0.320777893066406,0.000362064812339922
359,0.310754776000977,0.000290368381255876
360,0.301744937896729,0.000326507780861369
361,0.292014598846436,0.000349279231156125
362,0.28240966796875,0.00040687819257797
363,0.27363109588623,0.000292950371324724
364,0.265303611755371,0.000271380255307501
365,0.25703763961792,0.000271380255307501
366,0.24904203414917,0.000186939627743619
367,0.242215633392334,0.000193893973584755
368,0.235550403594971,0.000217081916514625
369,0.228224754333496,0.000214769488743434
370,0.220447063446045,0.000275959798465013
371,0.213371276855469,0.000226553357953162
372,0.206491947174072,0.0001942126779382
373,0.199125289916992,0.000150635265839487
374,0.191925525665283,0.000166259653767788
375,0.184836864471436,0.000244862264793248
376,0.178229331970215,0.000266319422541917
377,0.171560287475586,0.000185174969275664
378,0.165618419647217,0.000244587251310889
379,0.158768177032471,0.000169483247449695
380,0.152676105499268,0.000159155071986657
381,0.147016048431396,0.000147462228467798
382,0.141762733459473,0.000159674246435674
383,0.136037349700928,0.000205591480295743
384,0.130552291870117,0.000222906963882375
385,0.12529468536377,0.00018232397360139
386,0.12035083770752,0.000181889469930758
387,0.115254402160645,0.000163114554855369
388,0.110402584075928,0.000164602087367735
389,0.105683326721191,0.000189097048350588
390,0.101391315460205,0.000245966639123958
391,0.0973472595214844,0.000187061217669542
392,0.0933570861816406,0.000198652901086109
393,0.0893592834472656,0.000236180289290062
394,0.0847363471984863,0.000164206545007993
395,0.0813298225402832,0.000183393331589682
396,0.0781364440917969,0.000120971998821534
397,0.0748214721679688,0.000176277610548742
398,0.0711555480957031,0.000241676953282388
399,0.0677323341369629,0.000190396007897396
400,0.064784049987793,0.000168875769024137
401,0.0618205070495606,0.00012644369245821
402,0.0593881607055664,0.000178416127527902
403,0.0566515922546387,0.000185214257446535
404,0.0536227226257324,0.000159537485341582
405,0.0514645576477051,0.000156242591153268
406,0.0486998558044434,0.000168306630830219
407,0.0461192131042481,0.000222424984652445
408,0.0442781448364258,0.000195844863509789
409,0.0424032211303711,0.000179229888318382
410,0.0402913093566895,0.000200512151219257
411,0.0380134582519531,0.000172327655941493
412,0.0362114906311035,0.000213047512509956
413,0.0342397689819336,0.000213184075970963
414,0.0327143669128418,0.000182702694409442
415,0.0309453010559082,0.000144055338708265
416,0.0295319557189941,0.00016173146763382
417,0.0282893180847168,0.000193306749279591
418,0.0269083976745605,0.000212251997770622
419,0.0253715515136719,0.000160421513773455
420,0.0239787101745605,0.000145681360735927
421,0.0227093696594238,0.000141603777103535
422,0.0218191146850586,0.000156536277760672
423,0.0206012725830078,0.000122557353919624
424,0.0188517570495605,0.000182971309150537
425,0.0184183120727539,0.000173101740154774
426,0.0172185897827148,0.00014126939598159
427,0.016700267791748,0.0000995802226018311
428,0.0155239105224609,0.000154512898884007
429,0.0150384902954102,0.000181594214932312
430,0.0141119956970215,0.000105954461214874
431,0.0131535530090332,0.000150042401850228
432,0.0124177932739258,0.000165579943788325
433,0.0118560791015625,0.000121650495436304
434,0.0112514495849609,0.000165073834267635
435,0.00989341735839844,0.000173861916209747
436,0.0102324485778809,0.00014302889332921
437,0.00941991806030273,0.000139363766296555
438,0.00861835479736328,0.00016058584238366
439,0.00800943374633789,0.000154097362626975
440,0.00743627548217773,0.00013726285820253
441,0.00780630111694336,0.000168552324217974
442,0.0070338249206543,0.000160964856611955
443,0.00666236877441406,0.000115538342056965
444,0.00587034225463867,0.000119778229128323
445,0.00572919845581055,0.000100509762709613
446,0.00551557540893555,0.000150354249382144
447,0.00478363037109375,0.00015556880797312
448,0.00486183166503906,0.000138621080860951
449,0.00445795059204102,0.000143346481635078
450,0.00429868698120117,0.000105410136000101
451,0.00372982025146484,0.0000911694690096569
452,0.003662109375,0.000148739566426108
453,0.0032505989074707,0.000124380484309869
454,0.00300502777099609,0.000103930812686162
455,0.00316667556762695,0.0000886609424009435
456,0.00282573699951172,0.0000805050262085162
457,0.00262641906738281,0.000111820092827605
458,0.00243520736694336,0.0000930724571881298
459,0.00213527679443359,0.000109856906679443
460,0.00175237655639648,0.000102339074835891
461,0.00210762023925781,0.000114146489642034
462,0.00152826309204102,0.000130896794027586
463,0.00154590606689453,0.000109840347624945
464,0.00166082382202148,0.0000991293876976228
465,0.00149250030517578,0.000095317350589285
466,0.00153827667236328,0.000111866850983858
467,0.00105524063110352,0.000119462697579077
468,0.00110626220703125,0.000128809595312009
469,0.000879287719726563,0.0000942040049708575
470,0.000696182250976563,0.0000865771366162083
471,0.000838756561279297,0.000106301537722545
472,0.000602245330810547,0.0000904986176107968
473,0.000812530517578125,0.000105797690403522
474,0.000536918640136719,0.000122905644710675
475,0.000614643096923828,0.000126364545973257
476,0.000468254089355469,0.00012348885643906
477,0.000413894653320313,0.00009014870996133
478,0.000586986541748047,0.000122200628101535
479,0.000407695770263672,0.000139738510250628
480,0.000424861907958984,0.000105728895669495
481,0.000211238861083984,0.0000933651539341238
482,0.000352382659912109,0.0000966768964270652
483,0.00016021728515625,0.000137946937788394
484,-0.0000162124633789062,0.000109883809820817
485,0.00107240676879883,0.000133936079895483
486,0.000710487365722656,0.0000812528278902937
487,-0.000314712524414062,0.0000828119401115765
488,-0.000161170959472656,0.000109344489342202
489,0.0000433921813964844,0.0000847496727638299
490,0.0000200271606445312,0.000106866856275286
491,0.000102519989013672,0.00010278689217573
492,0.0000205039978027344,0.0000787647810538986
493,0.000150680541992187,0.0000728188264462674
494,0.0000481605529785156,0.0000805459687471803
495,-0.0001373291015625,0.000101556240173143
496,0.000003814697265625,0.0000872494736593832
497,-0.0000510215759277344,0.0000782143767973648
498,-0.000141620635986328,0.000116295489864028
499,0.0000109672546386719,0.0000768447898359816
500,0.0000133514404296875,0.000075542203477753
501,0.000112056732177734,0.0000961959138591066
502,-0.0000867843627929688,0.0000871556065276784
503,-0.0000104904174804687,0.0000933554121609405
504,-0.000109195709228516,0.000064570512516183
505,0.0000514984130859375,0.000111367765749688
506,-0.0000424385070800781,0.000113280693388879
507,-0.0000352859497070312,0.000101605483906256
508,0.0000562667846679688,0.0000746627109127557
509,-0.000148773193359375,0.0000881052624968108
510,0.000173568725585937,0.0000944931967638714
511,0.000108242034912109,0.0000767278254909923
512,0.00000095367431640625,0.0000747479319223384
513,-0.0000858306884765625,0.00009223317566382
514,0.000091552734375,0.000106792363083142
515,0.000112533569335937,0.0000911145852088637
516,-0.0000095367431640625,0.0000940880793709107
517,0.00000905990600585938,0.0000871529976642032
518,0.0000834465026855469,0.000103659177857517
519,0.00016021728515625,0.0000800461752614719
520,0.0000205039978027344,0.0000753659192622725
521,0.000169754028320312,0.0000675898800635526
522,0.000125408172607422,0.0000785262636193806
523,0.000120162963867187,0.0000959118562070523
524,0.0000987052917480469,0.0000947047095002869
525,0.000152111053466797,0.0000919245085609506
526,0.000189304351806641,0.0000932676904137074
527,0.000208377838134766,0.0000897417159642007
528,0.000216007232666016,0.0000869963226855217
529,0.000296115875244141,0.0000703217609791937
530,0.000180721282958984,0.00009365936364614
531,0.000245571136474609,0.000101911602611753
532,0.000460624694824219,0.0000806009966114813
533,0.000341415405273437,0.0000966369059821579
534,0.000207901000976562,0.000107374156979343
535,0.000437736511230469,0.000102718294550035
536,0.000227451324462891,0.0000920456294147947
537,0.000275611877441406,0.0000612990812359766
538,0.000384807586669922,0.0000696133259133738
539,0.000347137451171875,0.0000886147688317668
540,0.000455856323242188,0.0000816144094024424
541,0.000360012054443359,0.0000627706812274311
542,0.000445365905761719,0.0000652274191954101
543,0.000387191772460937,0.0000962927748305915
544,0.000329494476318359,0.0000946014157687168
545,0.000407218933105469,0.0000775633939339459
546,0.000365734100341797,0.0000768492280114935
547,0.000414848327636719,0.0000877561757784731
548,0.000480175018310547,0.0000827171605015413
549,0.000421524047851563,0.0000742244175186947
550,0.000560760498046875,0.000102762556324205
551,0.000346183776855469,0.0000809767215075257
552,0.000529289245605469,0.0000952481477519902
553,0.000463485717773438,0.0000798926393170385
554,0.000470161437988281,0.0000555561333905101
555,0.000546932220458984,0.0000770840856491013
556,0.000523090362548828,0.0000888121208007427
557,0.000555515289306641,0.0000810216352817046
558,0.000533103942871094,0.0000704186941638472
559,0.000569820404052734,0.0000798072139378128
560,0.000692844390869141,0.0000915105046788304
561,0.000558853149414063,0.0000761791199630031
562,0.00046539306640625,0.0000686678620705621
563,0.000563144683837891,0.0000644736033928085
564,0.000647544860839844,0.0000690690023416761
565,0.000484943389892578,0.0000668729051904992
566,0.000530242919921875,0.000098826154711132
567,0.000689506530761719,0.0000693023386790618
568,0.000644207000732422,0.0000482195313652309
569,0.000786781311035156,0.0000664910049955496
570,0.000748634338378906,0.0000853325374993004
571,0.000733852386474609,0.0000799651791374847
572,0.00074005126953125,0.0000717921059375415
573,0.000708580017089844,0.0000685800588840754
574,0.000849723815917969,0.0000703379257866571
575,0.0007171630859375,0.0000577760584427675
576,0.000727176666259766,0.0000703346931223731
577,0.000760078430175781,0.0000770280212694779
578,0.000905513763427734,0.0000590768332869653
579,0.000390529632568359,0.0000694760084920282
580,0.000936031341552734,0.0000673539870567687
581,0.000715732574462891,0.0000753176329197433
582,0.00109004974365234,0.0000679187538710207
583,0.000130653381347656,0.0000722168262501296
584,0.000867843627929688,0.0000775868420375489
585,0.00101947784423828,0.0000719566073213105
586,0.000619411468505859,0.0000758530873273527
587,0.000715255737304688,0.0000778895654640358
588,0.000731945037841797,0.0000589930629509446
589,0.000650882720947266,0.0000508620093228273
590,0.000760555267333984,0.0000594289096371431
591,0.000682353973388672,0.0000580450094557475
592,0.0007781982421875,0.0000603571124885167
593,0.00103664398193359,0.0000549325926353823
594,0.000672340393066406,0.0000708147330143981
595,0.000861167907714844,0.000070119386461837
596,0.000669479370117188,0.0000783523403413533
597,0.000710964202880859,0.0000816283379646059
598,0.000724315643310547,0.0000703993182043415
599,0.000972747802734375,0.000086556124022824
600,0.000665187835693359,0.0000801214139839579
601,0.000762939453125,0.0000628846798776037
602,0.000841617584228516,0.0000484371269798384
603,0.000870227813720703,0.0000706733155332441
604,0.000818729400634766,0.0000610854269666578
605,0.000596523284912109,0.000058226874160769
606,0.000768661499023438,0.0000668542020982048
607,0.000781536102294922,0.0000798143362115669
608,0.000851154327392578,0.0000508597740722462
609,0.000710010528564453,0.0000632721763773698
610,0.000990867614746094,0.00006077289113628
611,0.000617027282714844,0.0000744660271312331
612,0.000772953033447266,0.0000549615589762614
613,0.000722885131835938,0.0000636662431130226
614,0.000774383544921875,0.00006909862379695
615,0.00075531005859375,0.0000763520377245364
616,0.000620365142822266,0.0000818258676750626
617,0.000624656677246094,0.0000718269357261393
618,0.000698089599609375,0.0000483713635030953
619,0.000558376312255859,0.0000635071197190681
620,0.000706672668457031,0.0000722545982055955
621,0.000603199005126953,0.0000636090760388194
622,0.000776767730712891,0.0000680692350345013
623,0.000635147094726563,0.0000937855173299481
624,0.000752925872802734,0.0000909372342655655
625,0.000757694244384766,0.0000810595119215415
626,0.000637054443359375,0.0000651855754495051
627,0.000742912292480469,0.0000852205524937047
628,0.000853061676025391,0.0000873640631912139
629,0.000719070434570313,0.0000532106257570501
630,0.000819206237792969,0.0000558978447521986
631,0.000670433044433594,0.0000763803231501573
632,0.000746726989746094,0.0000678869429828658
633,0.000651836395263672,0.0000533929877671895
634,0.000667095184326172,0.0000863852072292871
635,0.000638008117675781,0.0000877095259076591
636,0.000691413879394531,0.0000654813925593254
637,0.000667572021484375,0.000042687579908223
638,0.000695705413818359,0.0000581428568827674
639,0.000685691833496094,0.0000742198223856887
640,0.000674247741699219,0.0000783044437160346
641,0.000688552856445313,0.0000930406930943377
642,0.000623226165771484,0.0000814093845439169
643,0.000651359558105469,0.0000684722220147663
644,0.000670909881591797,0.0000739912383821365
645,0.000529289245605469,0.0000922356408357635
646,0.000690460205078125,0.000102525533481863
647,0.000585079193115234,0.0000953054226505829
648,0.000623703002929688,0.0000819244539300283
649,0.000541210174560547,0.0000881568614836626
650,0.000589847564697266,0.0000678165712285003
651,0.000582695007324219,0.0000820159912109375
652,0.000705718994140625,0.0000819230662149427
653,0.000716686248779297,0.0000772799906780011
654,0.000755786895751953,0.0000684622592790129
655,0.000575065612792969,0.0000819216784763498
656,0.00341176986694336,0.0000677410917965994
657,-0.00127172470092773,0.0000568747008228891
658,0.000100135803222656,0.0000638303132552808
659,0.000623703002929688,0.0000844311522632269
660,0.000616550445556641,0.0000724070591059328
661,0.000638484954833984,0.0000644929968669703
662,0.000668525695800781,0.0000767900312471924
663,0.000596046447753906,0.0000705493427003565
664,0.00051116943359375,0.0000706556184463175
665,0.000628471374511719,0.0000924965764749049
666,0.000630855560302734,0.0000910671589439159
667,0.000554561614990234,0.0000960492556318564
668,0.000645637512207031,0.0000657188174349188
669,0.000575542449951172,0.0000634318891461025
670,0.000607967376708984,0.0000554229615628788
671,0.000577449798583984,0.0000523674889556567
672,0.00069427490234375,0.0000644489123492163
673,0.000615596771240234,0.0000780193608362102
674,0.000627517700195313,0.0000862455936175866
675,0.000626564025878906,0.0000861941694380055
676,0.000621318817138672,0.0000574840988901843
677,0.000661849975585938,0.0000630201236825741
678,0.000612258911132813,0.0000603100048587743
679,0.000578880310058594,0.0000533834052975993
680,0.000608444213867188,0.0000566774671863694
681,0.000687599182128906,0.0000617904422871592
682,0.000651359558105469,0.0000668661046713185
683,0.000721931457519531,0.0000626782447449525
684,0.0007781982421875,0.0000674400150496052
685,0.000744819641113281,0.0000501405098635407
686,0.000733852386474609,0.0000750272622647801
687,0.000724315643310547,0.000065543864883179
688,0.000766277313232422,0.000053941643696193
689,0.000756263732910156,0.0000519916526041139
690,0.0007476806640625,0.000060653049237724
691,0.000791072845458984,0.0000583984396878293
692,0.000805377960205078,0.0000598653812510722
693,0.000815868377685547,0.000063158877143091
694,0.000741481781005859,0.0000566864928197316
695,0.000802516937255859,0.0000656997858034128
696,0.000706195831298828,0.0000565640227883364
697,0.000839710235595703,0.0000715366990655903
698,0.000812053680419922,0.0000763550156311942
699,0.00069427490234375,0.0000802872573875558
700,0.000649929046630859,0.0000671545194215629
701,0.000640392303466797,0.0000508631269112812
702,0.000697135925292969,0.0000679137320898061
703,0.000594139099121094,0.0000544597302828569
704,0.000581264495849609,0.0000675848338459087
705,0.000601768493652344,0.0000639175265507356
706,0.000439643859863281,0.0000617609972331702
707,0.000496864318847656,0.0000626854995912925
708,0.000520229339599609,0.0000591028068354996
709,0.000461101531982422,0.0000613417227905285
710,0.000406265258789063,0.0000533663655476387
711,0.000440597534179688,0.0000682010504211057
712,0.000517368316650391,0.0000679438572096399
713,0.000496864318847656,0.0000602817226108688
714,0.000494003295898438,0.0000593600020918444
715,0.000548362731933594,0.0000693433377353115
716,0.000554561614990234,0.0000679103840293594
717,0.000635623931884766,0.0000587623205984808
718,0.000551223754882813,0.0000609913683818374
719,0.000601768493652344,0.0000735164761484501
720,0.000669002532958984,0.0000534802156259716
721,0.000650405883789063,0.0000643005669824126
722,0.000754356384277344,0.0000657897050133025
723,0.000691413879394531,0.0000806306114447133
724,0.000636577606201172,0.0000536468293277684
725,0.000777721405029297,0.0000648971693545642
726,0.000730037689208984,0.0000542799049961715
727,0.000751495361328125,0.0000613268943083416
728,0.000770092010498047,0.0000532234434766251
729,0.000825881958007813,0.0000577868798638327
730,0.000752449035644531,0.0000587719932493008
731,0.000842094421386719,0.0000597170723131305
732,0.000746726989746094,0.0000689306005757764
733,0.000797271728515625,0.0000724745422642607
734,0.000771522521972656,0.0000669187906185882
735,0.000693798065185547,0.0000679421839422939
736,0.000715732574462891,0.000079975130448272
737,0.000719070434570313,0.0000707938595792017
738,0.000716209411621094,0.000069747113102321
739,0.000650882720947266,0.0000656097433579135
740,0.000635623931884766,0.0000596532623376484
741,0.000619411468505859,0.0000663095176857834
742,0.00060272216796875,0.0000758770639646664
743,0.000626087188720703,0.0000699196781722065
744,0.000634193420410156,0.0000525235642750255
745,0.000606060028076172,0.0000686231461833745
746,0.000479221343994141,0.0000712628307115609
747,0.000576972961425781,0.000081956364891743
748,0.000580310821533203,0.000061382482645864
749,0.000616550445556641,0.0000751741001240859
750,0.000603199005126953,0.0000602430487325065
751,0.000679969787597656,0.0000640277078165498
752,0.000556468963623047,0.0000538002498915418
753,0.000677108764648438,0.0000532159668487331
754,0.000670433044433594,0.0000619888305664063
755,0.000692367553710938,0.0000597170723131305
756,0.000710487365722656,0.000051013776593049
757,0.000715255737304688,0.0000684987822260114
758,0.000703811645507813,0.0000592727960038254
759,0.000704765319824219,0.0000496357478060434
760,0.000735759735107422,0.0000526241169052826
761,0.000811576843261719,0.0000551783218394924
762,0.000707626342773438,0.0000656253364682442
763,0.000760555267333984,0.0000577996662039446
764,0.000786304473876953,0.000074855840504419
765,0.000790596008300781,0.0000592257856939251
766,0.000759124755859375,0.0000507982661377851
767,0.000735282897949219,0.0000531689468278779
768,0.000762939453125,0.0000455235912997573
769,0.000887393951416016,0.0000423875781727668
770,0.00074005126953125,0.0000511995224995802
771,0.000827789306640625,0.0000486373901367188
772,0.000723838806152344,0.0000653336514293805
773,0.000726222991943359,0.000061412109185216
774,0.00064849853515625,0.0000542138895082887
775,0.000725269317626953,0.0000665593621689386
776,0.000794887542724609,0.000067938837283969
777,0.000712871551513672,0.000071852255877001
778,0.000650882720947266,0.0000817341174675398
779,0.000634193420410156,0.0000501518454072533
780,0.000682353973388672,0.0000397701914730365
781,0.00061798095703125,0.0000550246114225451
782,0.000597953796386719,0.00005425581341318
783,0.000555515289306641,0.000067527617024548
784,0.000667572021484375,0.0000414395907772387
785,0.000521183013916016,0.00005538602659735
786,0.000616550445556641,0.0000611746951289515
787,0.000563621520996094,0.0000661447221090139
788,0.000585079193115234,0.0000720750051186368
789,0.000539779663085938,0.0000617849224084357
790,0.0005645751953125,0.0000627362600249835
791,0.0005645751953125,0.0000619906645283471
792,0.000573635101318359,0.0000592411401009998
793,0.000575542449951172,0.0000541530421955137
794,0.000529289245605469,0.0000581526325703935
795,0.000636577606201172,0.0000626401430164703
796,0.000603675842285156,0.0000513912339520162
797,0.000553607940673828,0.0000517099064320601
798,0.000606060028076172,0.0000680942828974198
799,0.000634193420410156,0.0000540037817941727
800,0.00067138671875,0.0000563031418575335
801,0.000640869140625,0.0000532181031353138
802,0.000653743743896484,0.0000422828477045969
803,0.000634670257568359,0.0000352561347885625
804,0.000674247741699219,0.0000661223744665746
805,0.000638961791992188,0.0000691084947939477
806,0.000673770904541016,0.0000623636650499029
807,0.000647544860839844,0.0000529418104827245
808,0.000673770904541016,0.0000609531447649948
809,0.000634193420410156,0.0000710487365722656
810,0.000532150268554688,0.0000813437233538857
811,0.000607967376708984,0.0000673641136993283
812,0.000646114349365234,0.000056003504167721
813,0.000565528869628906,0.0000750969325073833
814,0.000611782073974609,0.0000625493311982766
815,0.000610828399658203,0.0000765572415379512
816,0.000605583190917969,0.0000637447641288757
817,0.000505447387695313,0.0000680007238012141
818,0.000482559204101563,0.0000530158437544053
819,0.000443935394287109,0.000066942570680477
820,0.000570297241210938,0.0000653214696203912
821,0.000516414642333984,0.0000693875895064128
822,0.000459194183349609,0.000065370183235785
823,0.000515460968017578,0.0000562748660733487
824,0.000475406646728516,0.0000435412644033872
825,0.000517845153808594,0.0000494004216432634
826,0.000522613525390625,0.0000601722395109076
827,0.000492095947265625,0.0000600843201829722
828,0.000531673431396484,0.0000647814474032167
829,0.000454425811767578,0.0000687886150438363
830,0.000523090362548828,0.0000663455121534647
831,0.000515460968017578,0.0000681426826585341
832,0.000534534454345703,0.0000710375348163708
833,0.000491619110107422,0.0000759818727933124
834,0.000612735748291016,0.0000891188110514952
835,0.000539779663085938,0.0000636019265416586
836,0.000667095184326172,0.0000595473968241871
837,0.000533580780029297,0.0000998401819481079
838,0.000638961791992188,0.0000952099453448576
839,0.000711917877197266,0.0000624019355921016
840,0.000686168670654297,0.0000686330855648895
841,0.000744342803955078,0.0000743850683397619
842,0.000728607177734375,0.0000681326717357321
843,0.000776767730712891,0.0000634605589279714
844,0.000770092010498047,0.0000741523943864504
845,0.000771999359130859,0.0000732484581369052
846,0.000792980194091797,0.0000622012094845594
847,0.000831127166748047,0.0000702311693010307
848,0.000845432281494141,0.0000656426578021083
849,0.000864505767822266,0.0000590450723225154
850,0.000829219818115234,0.0000655213123040409
851,0.000841140747070313,0.0000817925158713572
852,0.000788688659667969,0.0000639406448055128
853,0.000774860382080078,0.0000510794765606607
854,0.000903606414794922,0.0000544242305411752
855,0.000789642333984375,0.00006887450174609
856,0.000751972198486328,0.0000587671571228969
857,0.0007781982421875,0.0000658087106405166
858,0.000805854797363281,0.0000660896989345881
859,0.000784873962402344,0.0000786116347932773
860,0.000762462615966797,0.0000652622684895539
861,0.000680923461914063,0.000063610863287553
862,0.000686168670654297,0.0000751786369289336
863,0.000771999359130859,0.0000647410714548388
864,0.000639438629150391,0.0000683193004172223
865,0.000660419464111328,0.000058962220934485
866,0.000773429870605469,0.0000872103746327013
867,0.000697612762451172,0.0000589545079092791
868,0.000593185424804688,0.000064183769378874
869,0.000720977783203125,0.0000732500101918723
870,0.000566482543945313,0.0000775311412123717
871,0.000569820404052734,0.0000765750593601175
872,0.000651836395263672,0.0000814345173619719
873,0.000587940216064453,0.0000582190637148371
874,0.000567913055419922,0.0000743713118670907
875,0.0005645751953125,0.0000742106312660829
876,0.000552177429199219,0.000060448396597515
877,0.000568389892578125,0.0000595798440835467
878,0.000538825988769531,0.0000470416230188889
879,0.000664234161376953,0.0000563425023379392
880,0.000609874725341797,0.0000639513119505567
881,0.000522136688232422,0.0000593303089185822
882,0.000489234924316406,0.0000775135431623881
883,0.000623703002929688,0.0000727204025254171
884,0.000683784484863281,0.0000861097144919157
885,0.000726699829101563,0.0000856861911496678
886,0.000707149505615234,0.0000847630861302884
887,0.000674247741699219,0.000069932684669677
888,0.00081634521484375,0.0000664020354672593
889,0.000690937042236328,0.0000642262658099559
890,0.000821113586425781,0.0000601552328952273
891,0.000826358795166016,0.0000839016626278792
892,0.000800609588623047,0.0000888274804620228
893,0.000774860382080078,0.0000935597763850126
894,0.000778675079345703,0.0000859934535092075
895,0.000864982604980469,0.0000570672686692943
896,0.000901699066162109,0.0000540490238773527
897,0.000891685485839844,0.0000634766799898161
898,0.000984668731689453,0.0000689817097474103
899,0.000878334045410156,0.0000805050262085162
900,0.00100803375244141,0.0000844728835570028
901,0.000967979431152344,0.0000826662918936512
902,0.000925540924072266,0.0000707842236099758
903,0.000989437103271484,0.0000715144466646049
904,0.00100994110107422,0.0000824073392633387
905,0.00096893310546875,0.0000774225561817093
906,0.000904560089111328,0.0000807968167420638
907,0.00109291076660156,0.000104728464879567
908,0.000916004180908203,0.0000946518756275555
909,0.000906944274902344,0.0000705074325152379
910,0.00101661682128906,0.0000609885723441354
911,0.00095367431640625,0.000104589423583716
912,0.000832080841064453,0.0000940590756466177
913,0.000872135162353516,0.000100724442903781
914,0.000874042510986328,0.0000727704122640024
915,0.000891208648681641,0.0000611988495145204
916,0.000682353973388672,0.000135492252750062
917,0.000910282135009766,0.0000991500289029891
918,0.000733852386474609,0.000116726775536979
919,0.000772476196289063,0.0000855241706497838
920,0.00079345703125,0.0000878364591450484
921,0.000597000122070313,0.000108584940547869
922,0.000681400299072266,0.0000989595078875194
923,0.000606060028076172,0.000079611815724678
924,0.000706195831298828,0.0000695643150937196
925,0.000692367553710938,0.0000964367050089284
926,0.000695228576660156,0.0000969938822562494
927,0.000544071197509766,0.000100530120491825
928,0.000440597534179688,0.0000880768701690301
929,0.000548362731933594,0.000103063032276399
930,0.000549793243408203,0.0000787431275054334
931,0.000485420227050781,0.0000994179745896953
932,0.000576496124267578,0.000120489871678288
933,0.000577449798583984,0.0000957148898080059
934,0.000422477722167969,0.0000964649938640423
935,0.000548839569091797,0.000128760160448093
936,0.000529289245605469,0.000122375405042815
937,0.000479221343994141,0.00010144647503936
938,0.000506401062011719,0.000075240612512031
939,0.000518798828125,0.00012040681165786
940,0.000467300415039063,0.000109745084574335
941,0.000545501708984375,0.0000896479220741701
942,0.00051116943359375,0.0000885197808578663
943,0.000537395477294922,0.0000820146050446939
944,0.000596523284912109,0.000114474688951293
945,0.000406742095947266,0.00016146131465964
946,0.000679492950439453,0.000142257395621983
947,0.000656604766845703,0.000143384544960665
948,0.000617504119873047,0.000114321646526268
949,0.000505924224853516,0.000140569135626277
950,0.000891208648681641,0.000120621894743916
951,0.000752925872802734,0.0000939744303213121
952,0.000697135925292969,0.000103819177952395
953,0.00067138671875,0.000105479138633136
954,0.000806331634521484,0.000085603891184104
955,0.0007781982421875,0.0000854124368964854
956,0.000705242156982422,0.000102419027250302
957,0.000761032104492188,0.000132543576454862
958,0.000728130340576172,0.000113981038192655
959,0.000725269317626953,0.000132344433078022
960,0.000916481018066406,0.000128158358366972
961,0.000902175903320313,0.000106673065772162
962,0.000748634338378906,0.000111858720534615
963,0.000754833221435547,0.000130941949419669
964,0.000917911529541016,0.000111854655088375
965,0.000772953033447266,0.000149270595559658
966,0.000634193420410156,0.000130555889204304
967,0.000859737396240234,0.000150381467473834
968,0.00089263916015625,0.00012352199446634
969,0.000756740570068359,0.000122118731671152
970,0.000800132751464844,0.000170422427533517
971,0.000656604766845703,0.000173385229683507
972,0.000852108001708984,0.000154480521360526
973,0.000827789306640625,0.000158229485717439
974,0.000739097595214844,0.00013999211347002
975,0.000810146331787109,0.000180483966708124
976,0.000610828399658203,0.000168501055189418
977,0.000982761383056641,0.000140057065968978
978,0.000462055206298828,0.000168959224960488
979,0.000535011291503906,0.000177885186747193
980,0.000725746154785156,0.000161475396284165
981,0.000657081604003906,0.000170933983716396
982,0.000723361968994141,0.000176700178584699
983,0.000343799591064453,0.000160942253949959
984,0.000595569610595703,0.000132258502937235
985,0.000665187835693359,0.000165763849888821
986,0.000388145446777344,0.000189322967959176
987,0.000840187072753906,0.000192008534266234
988,0.000647544860839844,0.000243760349228969
989,0.000324726104736328,0.0002424509467191
990,0.000622749328613281,0.000190520165724675
991,0.000315189361572266,0.000159212206922438
992,0.000622272491455078,0.000216616367465316
993,0.000640869140625,0.000195775191794351
994,0.000537395477294922,0.00024351023708705
995,0.000511646270751953,0.000238078828970348
996,0.000201225280761719,0.000193231455737894
997,0.000185966491699219,0.000280094650029116
998,0.000128746032714844,0.000229175696874654
999,0.000458240509033203,0.000245418779090375
1000,0.000540256500244141,0.00022986518699925
1001,0.000215530395507812,0.000254286128833737
1002,0.000539779663085938,0.000238384244353892
1003,0.000399112701416016,0.000204291196273741
1004,0.000473976135253906,0.000237906860516322
1005,0.0000696182250976563,0.000264956745602841
1006,0.000560760498046875,0.000374957769593946
1007,0.000308036804199219,0.000225672473555099
1008,0.000786781311035156,0.00018894788970347
1009,-0.000203609466552734,0.000205688780775892
1010,0.000064849853515625,0.000178252929572389
1011,0.000668525695800781,0.00022356290354446
1012,0.0000462532043457031,0.00027174196184312
1013,0.000477790832519531,0.000357097232061772
1014,0.000336647033691406,0.000395203373146107
1015,0.000252246856689453,0.000322691597962181
1016,-0.000204086303710937,0.000334482828041278
1017,0.0000333786010742187,0.000325704562471566
1018,0.000338554382324219,0.000353626757351548
1019,0.000169754028320312,0.000387844231252223
1020,0.000216007232666016,0.000343338648110277
1021,0.000188350677490234,0.000323934963706843
1022,0,0.000251242055161647
1023,-0.000358104705810547,0.000379720491994142
1024,0.000011444091796875,0.00040101523061934
1025,-0.000123023986816406,0.000490985771355062
1026,0.000470161437988281,0.000288867305000519
1027,-0.000322818756103516,0.00023910423867729
1028,0.000633716583251953,0.000330742172621576
1029,0.0000529289245605469,0.000491267253195717
1030,-0.000553131103515625,0.000394844201931734
1031,0.000429630279541016,0.00060591275716597
1032,0.00040435791015625,0.000542304533233214
1033,-0.000664710998535156,0.000528813913341476
1034,0.000484943389892578,0.000547286096247178
1035,-0.000290870666503906,0.000370919239898114
1036,-0.000519752502441406,0.000313548623474648
1037,0.000185966491699219,0.000406547233619651
1038,-0.000760555267333984,0.000513895084199491
1039,-0.000516414642333984,0.000590810283071339
1040,-0.0003509521484375,0.000510955879809725
1041,-0.000655651092529297,0.000690828930944209
1042,-0.00101613998413086,0.000551945962305967
1043,0.000729560852050781,0.000503698959703687
1044,-0.00113630294799805,0.000539155875978234
1045,-0.000513553619384766,0.00058725278968862
1046,0.0000677108764648438,0.000650816868675109
1047,-0.00162839889526367,0.000689542803726976
1048,-0.00104522705078125,0.000770663265071435
1049,-0.0000910758972167969,0.000829712001614765
1050,-0.000779628753662109,0.000598907470703125
1051,-0.00174379348754883,0.000698204239567685
1052,-0.00144815444946289,0.000750982041456775
1053,0.000491142272949219,0.000736523112932011
1054,-0.0024714469909668,0.000689289512618738
1055,-0.0012507438659668,0.000867002729543868
1056,-0.000286102294921875,0.000884779538430463
1057,-0.000630855560302734,0.00116577547881556
1058,-0.000460624694824219,0.00111504064370393
1059,-0.00142431259155273,0.00110294238536315
1060,-0.00157928466796875,0.000923692531998395
1061,-0.00299167633056641,0.000900462501453892
1062,-0.0024261474609375,0.00121403302343466
1063,-0.000402927398681641,0.00126765093572249
1064,-0.00142717361450195,0.00119866504995684
1065,-0.00156879425048828,0.00137718496332353
1066,-0.00287866592407227,0.00124190514582401
1067,-0.00114250183105469,0.00121771924587344
1068,-0.00249814987182617,0.00111926104112474
1069,-0.00121450424194336,0.000954452197402375
1070,-0.00336027145385742,0.00151489116413502
1071,-0.0000019073486328125,0.00200564578886899
1072,-0.00169277191162109,0.00114821754022922
1073,-0.00312566757202148,0.00126829362110817
1074,-0.000984668731689453,0.00147935514161561
1075,-0.00148630142211914,0.00117430732549063
1076,-0.00361156463623047,0.00108420648962616
1077,-0.000761985778808594,0.00118847259107066
1078,-0.00303888320922852,0.00151023474507552
1079,-0.00131464004516602,0.00158515245522712
1080,-0.00270557403564453,0.00227944042338898
1081,-0.000716209411621094,0.00256465703033014
1082,-0.000498294830322266,0.00280355076081517
1083,-0.0010833740234375,0.00195139569973879
1084,-0.00250673294067383,0.00199476206602307
1085,0.0000405311584472656,0.00233339765188999
1086,0.000243186950683594,0.00237640637556471
1087,0.000461578369140625,0.00187074247419609
1088,-0.0000171661376953125,0.00249540689357923
1089,-0.00280094146728516,0.00280794888071251
1090,-0.00409078598022461,0.00247676986584311
1091,-0.000669479370117188,0.00226560905056305
1092,-0.00296974182128906,0.00203771973021883
1093,0.0003509521484375,0.00213268530819208
1094,0.00194501876831055,0.00332865508429461
1095,-0.000761985778808594,0.00361868222705185
1096,-0.00249290466308594,0.00237424992650391
1097,-0.00101709365844727,0.00241898733694682
1098,-0.00119113922119141,0.00237939276520029
1099,-0.00492572784423828,0.00342708461939238
1100,-0.00174236297607422,0.00309230569880541
