Wavelength (nm),Absorbance (AU),Std.Dev.
190,0.560583591461182,0.852278941738707
191,1.3101658821106,1.77352353866181
192,1.46027946472168,0.840179801952758
193,0.811992645263672,0.424570023187982
194,1.15271091461182,0.998916038490285
195,1.8276948928833,1.31219769584036
196,1.46919012069702,0.607041807340627
197,1.2211446762085,0.27855150759386
198,1.40722227096558,0.296733621763959
199,1.4118709564209,0.449142316867139
200,1.9282751083374,0.58788738059736
201,1.46455669403076,0.438745089337726
202,2.86626100540161,0.756522742656326
203,2.58548736572266,0.385760729380313
204,2.89605665206909,0.245643809911132
205,3.41047382354736,0.311497415155307
206,3.08396339416504,0.158660603981768
207,3.00995397567749,0.0855496062099684
208,3.0967755317688,0.0925006268454267
209,2.98138093948364,0.0558201792390379
210,3.03000545501709,0.0530836056273627
211,2.97354173660278,0.0518716962750466
212,3.04464149475098,0.0757324061341457
213,3.06610727310181,0.0776459310572113
214,3.03434419631958,0.0733007578312313
215,3.08706474304199,0.0415835345969875
216,2.98478889465332,0.0219818096168832
217,2.92675638198853,0.0293497244670873
218,3.00657272338867,0.0536554223042869
219,2.91619157791138,0.0306369734732474
220,2.82522964477539,0.0203787968848147
221,2.72151041030884,0.0301476603712053
222,2.68549585342407,0.020007618406785
223,2.60788726806641,0.0117884786674882
224,2.51436853408814,0.012917554066026
225,2.44270753860474,0.0106322120984688
226,2.34315967559814,0.012155653598149
227,2.23069620132446,0.0118778867726271
228,2.13559341430664,0.0063526427416657
229,2.05078983306885,0.00399034109547052
230,1.95370531082153,0.00183149968144177
231,1.8771595954895,0.00108549420996674
232,1.8077449798584,0.00170051656686463
233,1.73667287826538,0.00172515439961343
234,1.67629098892212,0.00116385157005406
235,1.62548732757568,0.000852326646322013
236,1.58297395706177,0.00104931220989711
237,1.54744005203247,0.00145923015715015
238,1.51610088348389,0.00106385607992879
239,1.49323844909668,0.000977426385244812
240,1.47659635543823,0.000988705950918053
241,1.46757745742798,0.000998897253664589
242,1.46124076843262,0.0007806626734794
243,1.46439933776855,0.000729395654462715
244,1.47512149810791,0.000646937117410231
245,1.49201488494873,0.000960607124927355
246,1.51155948638916,0.00105263528021284
247,1.54291868209839,0.00140335241452254
248,1.58298015594482,0.00126925703902009
249,1.62372493743896,0.0015517520796404
250,1.67746067047119,0.00277458328434588
251,1.73543262481689,0.0033252258971568
252,1.79356384277344,0.00327150714923276
253,1.85987138748169,0.00637225739069247
254,1.93167686462402,0.00821302815252997
255,2.00158405303955,0.00603476908901771
256,2.06278276443481,0.00897569651862948
257,2.15381765365601,0.014161471601758
258,2.22255420684814,0.0129854356904025
259,2.25931835174561,0.00878015702800188
260,2.30371904373169,0.0112946377091313
261,2.33409357070923,0.0137825978283911
262,2.36229753494263,0.0118427078472997
263,2.39155006408691,0.0132101286421121
264,2.40212202072144,0.0142053343813894
265,2.4097375869751,0.0131968678652586
266,2.40000438690186,0.0243584571846541
267,2.36634683609009,0.0218754632083351
268,2.30255556106567,0.0157172341800842
269,2.19896268844605,0.00810113814152083
270,2.12918949127197,0.00672550925982
271,2.05777883529663,0.00747113694072088
272,1.96730756759644,0.00596601090819103
273,1.88241910934448,0.00416897372113018
274,1.76608753204346,0.00457295496264898
275,1.60954427719116,0.00258342609732467
276,1.44194793701172,0.00111334277702435
277,1.28151702880859,0.000570370596056081
278,1.14119863510132,0.000669161403169726
279,1.02076053619385,0.000581187625712086
280,0.922140121459961,0.000711336204843232
281,0.8402099609375,0.000471905959590798
282,0.774483203887939,0.000234002217970131
283,0.718209266662598,0.000207414846101389
284,0.672379016876221,0.000207300807183115
285,0.634175777435303,0.000170168745102467
286,0.602314472198486,0.000181944464480597
287,0.57484769821167,0.000298120482787162
288,0.55204439163208,0.00020180073034205
289,0.533271789550781,0.000219307771907783
290,0.517605304718018,0.000286064145405748
291,0.504110336303711,0.00022889375655603
292,0.492868900299072,0.000166314348043156
293,0.484306812286377,0.000171186532139142
294,0.477241516113281,0.00020089280200264
295,0.470548152923584,0.000183938040943011
296,0.465920925140381,0.000195672961737785
297,0.462650299072266,0.000138243307861012
298,0.459775447845459,0.000167110845901568
299,0.457911491394043,0.00015164621173748
300,0.456716537475586,0.000133091392703396
301,0.456418514251709,0.000201660968199289
302,0.456457614898682,0.000310675418613945
303,0.457021236419678,0.000217642603958273
304,0.458080291748047,0.000183100501628897
305,0.460196971893311,0.000230319751596792
306,0.461657047271729,0.000304489556304863
307,0.463966369628906,0.000298260784834034
308,0.467164516448975,0.00029908296994107
309,0.470272541046143,0.000425428543533239
310,0.472121715545654,0.000295183384370892
311,0.476006507873535,0.000229128069352361
312,0.47942590713501,0.000211044484730646
313,0.482407093048096,0.000259174922965439
314,0.485713958740234,0.000244802828597265
315,0.489322185516357,0.00022513178527343
316,0.492362499237061,0.000172865143743472
317,0.495306015014648,0.000171955175116481
318,0.49810791015625,0.00020582138911974
319,0.500418186187744,0.000276038885149422
320,0.502859592437744,0.000341724277347743
321,0.504532337188721,0.000228754644021072
322,0.505978107452393,0.000159480466938995
323,0.507649898529053,0.000183284195457996
324,0.508319854736328,0.000220956275292581
325,0.50893497467041,0.000213984626212866
326,0.508579730987549,0.000321664040968983
327,0.508458614349365,0.000343492254165357
328,0.507564067840576,0.000241168377235447
329,0.505333423614502,0.000233632690395852
330,0.503660202026367,0.000269672387080627
331,0.501341342926025,0.000287010024439875
332,0.498281002044678,0.000268496160198483
333,0.495174884796143,0.000315693568861131
334,0.491954803466797,0.000254793508183689
335,0.487679004669189,0.000218293530377542
336,0.483329296112061,0.000210863408348331
337,0.478354930877686,0.000238208678354952
338,0.47245454788208,0.000285102368434305
339,0.467276573181152,0.000282500161223265
340,0.460945129394531,0.000282654652504679
341,0.454692840576172,0.000266292100723682
342,0.447731494903564,0.000271165683022276
343,0.440647125244141,0.000202169957950422
344,0.432857990264893,0.000198125695780531
345,0.425139427185059,0.000260099699916546
346,0.417383193969727,0.000147471479645368
347,0.409342765808106,0.00016678125182113
348,0.400625228881836,0.000289521449454441
349,0.39218807220459,0.000294442987608472
350,0.383394718170166,0.000266087097664691
351,0.374244689941406,0.000222134476275045
352,0.364835262298584,0.000149930220599517
353,0.356085300445557,0.000136225290952065
354,0.346656799316406,0.000213209671881963
355,0.337454795837402,0.000176040116076452
356,0.328498840332031,0.00025218149719353
357,0.318869113922119,0.00026564922905961
358,0.309628963470459,0.000330423034880484
359,0.299984931945801,0.000227650669000609
360,0.291464805603027,0.000335817964142832
361,0.281937122344971,0.000335069640471436
362,0.272257328033447,0.000251596564450701
363,0.26312255859375,0.00024698507776243
364,0.25487232208252,0.000321850599740205
365,0.246358871459961,0.000321850599740205
366,0.239209651947021,0.000194362475629532
367,0.232755184173584,0.00020954375488712
368,0.226110458374023,0.000320462952219741
369,0.218877792358398,0.000301077262403364
370,0.211441516876221,0.000185929808299769
371,0.204308032989502,0.0001667103449003
372,0.197287082672119,0.00022252718605314
373,0.190486431121826,0.000197643106232287
374,0.183559417724609,0.000165582690157053
375,0.177204608917236,0.000214137581647845
376,0.170516967773437,0.000233994444455705
377,0.163830280303955,0.000168840759096762
378,0.158034324645996,0.000222682442347985
379,0.151596069335937,0.000153248074014588
380,0.14573335647583,0.000144939672352159
381,0.140003681182861,0.000178584269218679
382,0.13493824005127,0.000202565453533389
383,0.129563331604004,0.000208001593655766
384,0.124332904815674,0.000222817182417292
385,0.119293212890625,0.000216305444771986
386,0.114160537719727,0.000195226240481387
387,0.109599113464355,0.000169700442653925
388,0.105059146881104,0.000208477655417372
389,0.100063323974609,0.00015363335087282
390,0.096034049987793,0.000170705038721195
391,0.0921845436096191,0.000213933616766083
392,0.0882983207702637,0.000220948042789167
393,0.0844497680664063,0.000226637646425584
394,0.0801496505737305,0.000188866043013386
395,0.0767121315002441,0.000178568990152711
396,0.0736861228942871,0.000164375389277927
397,0.0703425407409668,0.000192509974047693
398,0.0670599937438965,0.000219953770520328
399,0.0634989738464356,0.000198945697193366
400,0.0610756874084473,0.000140468813460368
401,0.0583806037902832,0.000117334888452189
402,0.0556392669677734,0.000145184190627938
403,0.0530428886413574,0.000157520901640922
404,0.0502943992614746,0.000145108998120195
405,0.0479402542114258,0.000126418514860577
406,0.0453400611877441,0.000153467504042751
407,0.0432257652282715,0.00021708610611245
408,0.0412659645080566,0.000238327008782309
409,0.039299488067627,0.000229778124344599
410,0.0375075340270996,0.000232125190601613
411,0.0354294776916504,0.000239503300271246
412,0.0336523056030273,0.000199224367950737
413,0.0319323539733887,0.000247250067491132
414,0.0304088592529297,0.000202610347364647
415,0.028562068939209,0.00018934698609666
416,0.0272889137268066,0.00021785979552621
417,0.0261130332946777,0.000204767001104024
418,0.0246682167053223,0.00019568225758623
419,0.0233850479125977,0.000216048807181133
420,0.0221900939941406,0.000197546446851551
421,0.0210237503051758,0.000134589769207066
422,0.0200419425964355,0.000112997327925001
423,0.0188131332397461,0.000128193836694028
424,0.0172386169433594,0.000169507393993331
425,0.0168261528015137,0.000153221365144893
426,0.015749454498291,0.000127906179270164
427,0.0152487754821777,0.0000957742596668377
428,0.0142984390258789,0.000132893070244564
429,0.0134720802307129,0.00018366588820126
430,0.0127882957458496,0.00011869893501003
431,0.0116734504699707,0.000111173640084973
432,0.0112247467041016,0.000121964095515226
433,0.0106186866760254,0.000127396754091845
434,0.0101165771484375,0.000101520411546106
435,0.00901079177856445,0.000132862269537709
436,0.00903844833374023,0.000152968884702785
437,0.00819063186645508,0.000165739157949013
438,0.00772666931152344,0.000148745680979415
439,0.00723600387573242,0.000158874813794711
440,0.00670766830444336,0.000166358090516357
441,0.00706577301025391,0.000173882839480321
442,0.00623798370361328,0.000183908371124132
443,0.00576639175415039,0.000162155485022731
444,0.00532770156860352,0.000154742290626311
445,0.00513219833374023,0.000152757669409388
446,0.00497198104858398,0.000134997980852033
447,0.00428295135498047,0.000086697860197368
448,0.00421905517578125,0.000105926560105446
449,0.00390863418579102,0.000129049438139668
450,0.00389575958251953,0.000114317668668387
451,0.00328397750854492,0.000113405069685707
452,0.00304508209228516,0.000144007979604695
453,0.0029149055480957,0.000112658770467466
454,0.002685546875,0.0000897113070687784
455,0.00266122817993164,0.000104114420725856
456,0.00234556198120117,0.000108685404662387
457,0.00213336944580078,0.000131638150066307
458,0.00214958190917969,0.000107348742977335
459,0.00191068649291992,0.000104813102724398
460,0.00149822235107422,0.000122364256526519
461,0.00181341171264648,0.0000892870416599778
462,0.00128936767578125,0.0000996144665382169
463,0.00127267837524414,0.0000983926641219859
464,0.00138282775878906,0.0000943535314034632
465,0.00127792358398437,0.0000815321824512157
466,0.00121879577636719,0.0000975105756299545
467,0.00072479248046875,0.0000944546890156415
468,0.000881195068359375,0.000128749564793491
469,0.000779151916503906,0.000109055066217639
470,0.000654697418212891,0.0000720813142052314
471,0.000620841979980469,0.0000995299768497448
472,0.000552654266357422,0.000129443504629482
473,0.000652790069580078,0.000126734669421236
474,0.000357627868652344,0.000131986595977617
475,0.000483512878417969,0.000121581320061576
476,0.000371456146240234,0.000125602926307285
477,0.000241756439208984,0.000107790513567517
478,0.000436305999755859,0.000112313119297078
479,0.000207901000976562,0.000121064062045971
480,0.000451564788818359,0.0000854124368964854
481,0.0000233650207519531,0.000100681543485438
482,0.000159263610839844,0.0000884555420499615
483,0.000201702117919922,0.000124398763461163
484,-0.0000667572021484375,0.000114948418985896
485,0.000964641571044922,0.000122405129455457
486,0.000720024108886719,0.0000803452924539379
487,-0.000430107116699219,0.000099726248118973
488,-0.000263690948486328,0.000114813832822952
489,0.0000309944152832031,0.000075593354279588
490,0.0000286102294921875,0.0000934941366008565
491,0.0000195503234863281,0.00010506011469971
492,0.0000205039978027344,0.0000859061545167806
493,0.0000209808349609375,0.0000791161798324258
494,-0.0000457763671875,0.0000982816792702454
495,-0.000219821929931641,0.000106408431478535
496,-0.0000710487365722656,0.0000852418943134148
497,-0.000113964080810547,0.0000703007411727223
498,-0.000166893005371094,0.000103672337864069
499,0.000030517578125,0.0000867188384470725
500,-0.0000743865966796875,0.0000809893560240255
501,0.000106334686279297,0.000110815149972096
502,-0.0000658035278320313,0.0000878105693047875
503,-0.0000329017639160156,0.0000840573433103761
504,-0.0000944137573242188,0.0000606942715805497
505,0.0000548362731933594,0.0000995802226018311
506,-0.000118255615234375,0.000109798939062957
507,-0.0000824928283691406,0.000122687152197538
508,0.0000476837158203125,0.000104358728941953
509,-0.000292778015136719,0.0000765513013422922
510,0.0000920295715332031,0.0000737465317349004
511,0.000151157379150391,0.0000904684631308313
512,0.00000095367431640625,0.000109036300109531
513,-0.0000748634338378906,0.000101343322028493
514,0.00000143051147460937,0.000115848860877922
515,-0.0000824928283691406,0.0000919146140979155
516,-0.0000147819519042969,0.0000983533713100719
517,0.0000290870666503906,0.000076497818824346
518,-0.0000395774841308594,0.000119432240853363
519,0.000109195709228516,0.0000887173441280955
520,0.00008392333984375,0.0000752949880370636
521,0.0000476837158203125,0.0000791161798324258
522,0.0000514984130859375,0.000109583362308604
523,0.000100135803222656,0.0000973985856511404
524,0.0000863075256347656,0.000102884178018703
525,0.0000152587890625,0.0000994385558909384
526,0.000125885009765625,0.000116158549612813
527,0.000223159790039062,0.0000925997626795834
528,0.000254631042480469,0.0000956673673931763
529,0.000318527221679687,0.0000821198869943866
530,0.000217437744140625,0.000090819642425957
531,0.000181674957275391,0.0000890856372692623
532,0.000377178192138672,0.0000844176861548679
533,0.000374794006347656,0.0000788066277102151
534,0.000282764434814453,0.000091785889016355
535,0.000377178192138672,0.0000990031534902139
536,0.000313758850097656,0.000105543787630134
537,0.000304698944091797,0.0000649059277617399
538,0.000365257263183594,0.0000546202343046114
539,0.000372409820556641,0.0000954865665173568
540,0.000383853912353516,0.0000901890562391368
541,0.000346183776855469,0.0000791707655068686
542,0.000275611877441406,0.0000638089367264646
543,0.0003204345703125,0.000094211245584601
544,0.000455379486083984,0.000086611271207754
545,0.000399112701416016,0.0000791463502535717
546,0.000333309173583984,0.0000706942245607252
547,0.000339031219482422,0.0000907294690039944
548,0.000403881072998047,0.0000846973403374272
549,0.000360012054443359,0.0000880871957107033
550,0.000530719757080078,0.000109332012079727
551,0.000336647033691406,0.0000965545205597511
552,0.000467300415039063,0.0000847456483398996
553,0.000491619110107422,0.0000746992461076573
554,0.000516414642333984,0.0000597741577599798
555,0.000607967376708984,0.0000772814617671494
556,0.000523090362548828,0.0000897442495737201
557,0.000419139862060547,0.0000857949182360106
558,0.000484466552734375,0.0000690031313597921
559,0.000519275665283203,0.0000939768498172078
560,0.000598430633544922,0.0000960090037572968
561,0.000455856323242188,0.0000841600698890639
562,0.000405788421630859,0.0000823272852175225
563,0.000506877899169922,0.0000659881296780969
564,0.000648021697998047,0.0000803254803163517
565,0.000489711761474609,0.000089003926050721
566,0.000521659851074219,0.0000978945640604285
567,0.000643730163574219,0.0000649794517750098
568,0.00072479248046875,0.0000638053732753839
569,0.000695228576660156,0.0000660380730715334
570,0.000690937042236328,0.0000762179115031312
571,0.000727653503417969,0.0000714205925128983
572,0.000764846801757813,0.0000671765237007828
573,0.000699520111083984,0.0000684290396840254
574,0.000827312469482422,0.0000765527864344197
575,0.000710487365722656,0.0000665866853893706
576,0.000756263732910156,0.0000730355148259956
577,0.0006866455078125,0.0000717350752605114
578,0.00095367431640625,0.0000657516772780559
579,0.000532627105712891,0.0000712261289590372
580,0.000893115997314453,0.0000713027024937391
581,0.000761985778808594,0.00007592349715231
582,0.0011601448059082,0.0000663917620804155
583,0.0000281333923339844,0.0000804979650454387
584,0.000814437866210938,0.0000827748653626592
585,0.000933170318603516,0.0000793600871729744
586,0.000519752502441406,0.0000891953188444253
587,0.000730037689208984,0.0000898936061422194
588,0.000710964202880859,0.0000662683572114971
589,0.000628948211669922,0.0000552226016685617
590,0.000727176666259766,0.0000499030077279115
591,0.000710964202880859,0.0000584159577602904
592,0.000784873962402344,0.0000659536639232763
593,0.000951766967773438,0.0000542526702440778
594,0.0006103515625,0.0000711862142876225
595,0.000900745391845703,0.0000682477086901429
596,0.000624656677246094,0.0000827748653626592
597,0.000729084014892578,0.0000899264818660999
598,0.000667095184326172,0.0000666566500196057
599,0.000982284545898438,0.0000830846844277363
600,0.000666141510009766,0.0000651314874906476
601,0.000736713409423828,0.0000565851225817493
602,0.000722408294677734,0.0000505132397082582
603,0.000783920288085938,0.0000715223947454351
604,0.000773429870605469,0.0000590922263975511
605,0.000637054443359375,0.0000647358031702258
606,0.000814914703369141,0.0000668865041545829
607,0.00070953369140625,0.0000913239640798501
608,0.000810623168945313,0.0000688712003919001
609,0.000567436218261719,0.0000669255857841844
610,0.000962257385253906,0.0000603994779418576
611,0.000607013702392578,0.0000667640137603269
612,0.000811576843261719,0.0000578871276005696
613,0.000748634338378906,0.0000766715006042618
614,0.000699996948242188,0.0000962715210143531
615,0.000740528106689453,0.0000844796124802438
616,0.000661373138427734,0.000091311514490251
617,0.000593662261962891,0.0000761447878964964
618,0.000669002532958984,0.0000512394753129167
619,0.000539779663085938,0.0000535057188299133
620,0.00066375732421875,0.0000571568453360432
621,0.000558853149414063,0.0000614454219672619
622,0.000668048858642578,0.0000756790295309049
623,0.000617027282714844,0.000090425727070837
624,0.000755786895751953,0.000074645959638897
625,0.000677585601806641,0.0000789737925986074
626,0.00058746337890625,0.0000762402822596479
627,0.000682353973388672,0.0000989801845194177
628,0.000776290893554688,0.000088568571190866
629,0.000730037689208984,0.0000517835054948944
630,0.000779151916503906,0.0000448708579821004
631,0.000608444213867188,0.0000594662012182624
632,0.000649452209472656,0.0000661945473544953
633,0.000674247741699219,0.0000588715290678031
634,0.000685214996337891,0.0000872103746327013
635,0.000589370727539063,0.0000838094719097569
636,0.000669956207275391,0.0000628882954981257
637,0.000634193420410156,0.0000468345369038796
638,0.000652790069580078,0.0000678333330298953
639,0.000716686248779297,0.0000797402334694976
640,0.000607013702392578,0.0000881568614836626
641,0.000676155090332031,0.0000972771176824048
642,0.000612735748291016,0.0000740219618142549
643,0.000519752502441406,0.0000816004784627826
644,0.00067901611328125,0.0000837103894596422
645,0.000630855560302734,0.0000976340820066541
646,0.000616550445556641,0.0000887788324183428
647,0.00064849853515625,0.0000843799696185615
648,0.000635623931884766,0.0000754940298875352
649,0.000471115112304688,0.0000846302001442854
650,0.0005035400390625,0.0000854217536247308
651,0.000633716583251953,0.0000837782667954949
652,0.000652790069580078,0.0000902319043923559
653,0.000584125518798828,0.000100733472032292
654,0.000743389129638672,0.0000784871644842868
655,0.000564098358154297,0.0000717319055600807
656,0.00352144241333008,0.0000562273711834407
657,-0.00139999389648437,0.0000573078124525971
658,0.0000162124633789062,0.0000641926251220317
659,0.000529289245605469,0.0000807982238005643
660,0.000569820404052734,0.0000621189073144972
661,0.000616073608398438,0.0000590768332869653
662,0.000564098358154297,0.0000671020185598192
663,0.000605106353759766,0.0000692219100884299
664,0.000574588775634766,0.0000824307886468736
665,0.000562667846679688,0.000102241270311099
666,0.000593185424804688,0.0000913413906545875
667,0.000497817993164063,0.0000976247662218892
668,0.000604152679443359,0.0000499109806370908
669,0.000535964965820313,0.0000681860463398723
670,0.000639915466308594,0.0000739420543378933
671,0.000606060028076172,0.0000586044312963621
672,0.000689029693603516,0.0000629930582194204
673,0.000608444213867188,0.000076025251264083
674,0.00057220458984375,0.0000798300029770944
675,0.000601768493652344,0.0000799040224672448
676,0.000638484954833984,0.0000499519640686333
677,0.000607967376708984,0.0000469000313031647
678,0.000543117523193359,0.0000513480782545921
679,0.000638484954833984,0.0000556961314102875
680,0.000649452209472656,0.0000619190997618972
681,0.0006256103515625,0.0000640951446515906
682,0.000667095184326172,0.0000653162481496095
683,0.000628471374511719,0.0000614842640674765
684,0.000721454620361328,0.0000658380721820572
685,0.000728607177734375,0.0000505705983210378
686,0.000721931457519531,0.0000677192709648779
687,0.00067138671875,0.0000635679554490871
688,0.000710487365722656,0.0000441698972394169
689,0.000759124755859375,0.0000495635469825221
690,0.000739574432373047,0.0000600587711099006
691,0.000702381134033203,0.0000592238661131414
692,0.000821113586425781,0.0000657603218761498
693,0.000809669494628906,0.0000688018353610763
694,0.000748157501220703,0.0000653927879361391
695,0.000804901123046875,0.0000645722731540248
696,0.000769615173339844,0.0000602864372402479
697,0.000757217407226563,0.0000720245125303694
698,0.000710964202880859,0.0000802121742257192
699,0.000690937042236328,0.0000835513410033502
700,0.000627994537353516,0.0000706524003178994
701,0.000676631927490234,0.000059288138236199
702,0.000642299652099609,0.0000632326346333065
703,0.000583648681640625,0.0000531079726315699
704,0.000578403472900391,0.0000654032182397283
705,0.000511646270751953,0.0000647744273070319
706,0.000466823577880859,0.0000732717355094418
707,0.000538825988769531,0.0000651820872581742
708,0.00048828125,0.0000618051595536028
709,0.000446796417236328,0.0000645229571343842
710,0.000370025634765625,0.0000494464268885131
711,0.000466346740722656,0.0000615378628529382
712,0.000481128692626953,0.0000607579238261035
713,0.000470638275146484,0.0000624237939390591
714,0.000475883483886719,0.0000630579958145773
715,0.000436782836914063,0.0000710839305987995
716,0.000556468963623047,0.0000731164130481062
717,0.0005340576171875,0.0000583731265240459
718,0.000503063201904297,0.0000626274372890649
719,0.000613689422607422,0.0000717509216622732
720,0.000608921051025391,0.00004937510048701
721,0.000561237335205078,0.0000588946977145354
722,0.000672817230224609,0.0000671595979720501
723,0.000659465789794922,0.0000878933899497525
724,0.000661849975585938,0.0000557807768106801
725,0.000759124755859375,0.0000585355242745103
726,0.000743865966796875,0.0000569925138991455
727,0.000779151916503906,0.0000645564256848147
728,0.000761985778808594,0.0000549181037356239
729,0.000787258148193359,0.0000605479929973649
730,0.000775337219238281,0.0000597646473053906
731,0.000792026519775391,0.0000571558508110118
732,0.000713348388671875,0.0000503847902280409
733,0.000740528106689453,0.0000764115738072889
734,0.000728130340576172,0.0000761880736099179
735,0.000746726989746094,0.0000667435768391521
736,0.000742912292480469,0.000072753225293749
737,0.000703811645507813,0.000068505420669815
738,0.00069427490234375,0.0000642014796436571
739,0.000680446624755859,0.0000611375159015419
740,0.000615119934082031,0.0000667554991368644
741,0.000553131103515625,0.0000622998285697157
742,0.000567913055419922,0.0000658760500448344
743,0.000577449798583984,0.00006393175415838
744,0.000607967376708984,0.0000549563875351396
745,0.000504016876220703,0.0000708917509187195
746,0.000496387481689453,0.0000706041107897934
747,0.000565052032470703,0.0000795661061342448
748,0.000524520874023438,0.0000674315857852517
749,0.00054168701171875,0.0000763311891249758
750,0.000624179840087891,0.0000564936332285234
751,0.000658988952636719,0.0000584344433615033
752,0.000534534454345703,0.0000532426642701931
753,0.000624179840087891,0.0000585394085163377
754,0.000642776489257813,0.0000632128544857718
755,0.000639438629150391,0.0000622213112347523
756,0.000685691833496094,0.0000465447782207963
757,0.000635623931884766,0.000069340058702907
758,0.000721454620361328,0.0000644418560277029
759,0.00067901611328125,0.000051565700300402
760,0.000762462615966797,0.0000518449409706691
761,0.000782012939453125,0.0000550886235636798
762,0.000705242156982422,0.0000603222563815029
763,0.000794410705566406,0.000055297693208653
764,0.000746726989746094,0.000073350823321986
765,0.000789165496826172,0.0000572849942902541
766,0.000765323638916016,0.000045147439722656
767,0.000732421875,0.000050950223282488
768,0.000776290893554688,0.0000378026923665592
769,0.000854969024658203,0.0000555970451626075
770,0.000714302062988281,0.0000564443083074863
771,0.000801563262939453,0.0000482548837965044
772,0.000750064849853516,0.0000604878789378068
773,0.000704288482666016,0.0000591508758829525
774,0.000653743743896484,0.000053094056429559
775,0.000706195831298828,0.0000673083983111053
776,0.000725269317626953,0.0000665679018800589
777,0.000744819641113281,0.0000798940622995092
778,0.000623703002929688,0.0000821918443100888
779,0.000653743743896484,0.0000586315836305504
780,0.000655174255371094,0.0000467555793734711
781,0.000582695007324219,0.0000537251814600389
782,0.000548362731933594,0.0000530951270361312
783,0.000629425048828125,0.000060795335192492
784,0.000564098358154297,0.0000483455033764124
785,0.000486850738525391,0.0000591768169331449
786,0.000545024871826172,0.0000638872823641878
787,0.000492095947265625,0.000070245736557239
788,0.000557899475097656,0.0000744706070724274
789,0.000474929809570313,0.0000604230014695726
790,0.000547885894775391,0.0000605094893026075
791,0.000559806823730469,0.0000742565754877898
792,0.000497817993164063,0.0000633942403808037
793,0.00060272216796875,0.0000569066742351039
794,0.000528335571289063,0.0000650756076047715
795,0.000586986541748047,0.0000663420849503137
796,0.000589847564697266,0.0000573544126417049
797,0.000498771667480469,0.000061094731819332
798,0.000550746917724609,0.0000691397436538386
799,0.000597000122070313,0.0000546971920804171
800,0.000662803649902344,0.0000570931608089286
801,0.000647544860839844,0.000064427741066187
802,0.000614643096923828,0.0000575759889287592
803,0.000596046447753906,0.0000384830039313543
804,0.000661849975585938,0.0000682543715534498
805,0.000596046447753906,0.0000649724530726603
806,0.000679492950439453,0.0000552534735575627
807,0.000641345977783203,0.0000525159880064032
808,0.000595569610595703,0.0000676285552229279
809,0.000577449798583984,0.0000723033577767367
810,0.000535011291503906,0.0000815210266486799
811,0.000593185424804688,0.0000630940433770107
812,0.000641345977783203,0.0000552904970707829
813,0.000557899475097656,0.0000688134010551778
814,0.000538349151611328,0.0000535641178736328
815,0.00054931640625,0.0000787200238219593
816,0.000520229339599609,0.0000704525892705567
817,0.000524520874023438,0.0000676302362498909
818,0.000471591949462891,0.0000533173459319667
819,0.000514984130859375,0.0000707553078285232
820,0.000509738922119141,0.0000715478226707768
821,0.000523567199707031,0.0000676100611677784
822,0.000433921813964844,0.000061401000908163
823,0.000489711761474609,0.0000582483474869795
824,0.000514030456542969,0.0000483137470302213
825,0.000477313995361328,0.0000578566785243956
826,0.000487327575683594,0.0000548238325519485
827,0.000517845153808594,0.0000536743714886674
828,0.000490188598632813,0.000064827059498463
829,0.000412940979003906,0.0000806672623652858
830,0.000499725341796875,0.0000640348097751781
831,0.000486373901367188,0.0000696525097389336
832,0.000534534454345703,0.000075240612512031
833,0.000495433807373047,0.0000794273882162061
834,0.000643253326416016,0.0000930186962138083
835,0.000569343566894531,0.0000642191850243317
836,0.000602245330810547,0.0000582005097049463
837,0.000561714172363281,0.0000905212268786896
838,0.000620365142822266,0.0000898379428945975
839,0.000650405883789063,0.0000579087269094608
840,0.000672340393066406,0.000058838691201442
841,0.000774383544921875,0.0000788787249822701
842,0.000741958618164063,0.0000676806476437641
843,0.000707626342773438,0.000072814142609697
844,0.000736713409423828,0.0000787763271793762
845,0.000783920288085938,0.0000706234305632538
846,0.000789165496826172,0.0000629695920747032
847,0.000792026519775391,0.0000659743455368054
848,0.000812053680419922,0.000056381835340576
849,0.000849723815917969,0.0000562920352076082
850,0.000870227813720703,0.0000674551850710526
851,0.000852108001708984,0.0000829874764979636
852,0.000873088836669922,0.0000661326897014674
853,0.000823020935058594,0.0000608626177015368
854,0.000817298889160156,0.0000612359915034433
855,0.000852584838867188,0.0000719028694297259
856,0.000778675079345703,0.0000633709227933314
857,0.000711917877197266,0.0000707826174875698
858,0.000860691070556641,0.0000619246076802276
859,0.000818252563476563,0.0000780324741910043
860,0.00074005126953125,0.0000714381000959806
861,0.000697612762451172,0.0000716399232418952
862,0.000636100769042969,0.0000716573772373404
863,0.0007476806640625,0.0000627942217049987
864,0.000646114349365234,0.0000785899390490917
865,0.00067138671875,0.0000747844254833664
866,0.000763893127441406,0.0000724384544415389
867,0.000649929046630859,0.0000581790187222651
868,0.000485897064208984,0.0000671003242997147
869,0.000659942626953125,0.0000716192903087141
870,0.000481128692626953,0.000074725114396265
871,0.000526905059814453,0.0000757285866897647
872,0.000578880310058594,0.0000754428117430348
873,0.000494003295898438,0.0000671595979720501
874,0.000514030456542969,0.0000797373819887454
875,0.000582695007324219,0.0000740296406799886
876,0.000519275665283203,0.0000574019652772063
877,0.000528812408447266,0.0000553100272667711
878,0.000581741333007813,0.0000613157705933298
879,0.000563621520996094,0.0000591076154993837
880,0.000558853149414063,0.0000634480174924514
881,0.000597476959228516,0.000048347854868589
882,0.000477313995361328,0.0000565750760424975
883,0.000590324401855469,0.0000672661589606566
884,0.000581741333007813,0.0000758980373089732
885,0.000674247741699219,0.000087468105223069
886,0.000667572021484375,0.0000973308625959249
887,0.000676631927490234,0.0000763237418163942
888,0.000799655914306641,0.0000690393681772688
889,0.000657558441162109,0.0000707842236099758
890,0.000722885131835938,0.0000754473323896963
891,0.000771522521972656,0.0000886096369499711
892,0.000820636749267578,0.000105336771175263
893,0.000851154327392578,0.000088640423784052
894,0.000815391540527344,0.0000863588823140852
895,0.000923633575439453,0.0000651332329645921
896,0.000835418701171875,0.0000632793631307298
897,0.000920772552490234,0.0000659760687119598
898,0.000957965850830078,0.000083099734637882
899,0.000870227813720703,0.0000990513709919023
900,0.00106287002563477,0.0000843206666903783
901,0.000957489013671875,0.0000926071287232675
902,0.000945091247558594,0.0000714731023965176
903,0.000901222229003906,0.000074337674216862
904,0.000987529754638672,0.0000831435015770961
905,0.00101041793823242,0.0000765394195679251
906,0.000898361206054688,0.0000700999277722819
907,0.000985622406005859,0.0000676151055026691
908,0.000901222229003906,0.0000880562154533404
909,0.000879764556884766,0.0000832350640701098
910,0.00102376937866211,0.0000786304329293205
911,0.00090789794921875,0.000103069650547863
912,0.000810623168945313,0.000121195459624661
913,0.000887870788574219,0.000116133100073109
914,0.000914573669433594,0.000079790117886932
915,0.000821113586425781,0.0000727469744796389
916,0.000726699829101563,0.00009283763537139
917,0.000917911529541016,0.0000850242238249907
918,0.000792980194091797,0.000122916744123215
919,0.000811576843261719,0.0000999812795836613
920,0.000779151916503906,0.0000919912683500245
921,0.000621795654296875,0.000105804137616504
922,0.000642776489257813,0.000091480683744513
923,0.000575542449951172,0.0000741048514559266
924,0.000606536865234375,0.0000713537058639904
925,0.00052642822265625,0.0000963824614953815
926,0.000668048858642578,0.0000984458000226131
927,0.000562667846679688,0.000107431316502677
928,0.000430107116699219,0.0000716621366801245
929,0.000527858734130859,0.000102820068145321
930,0.000514030456542969,0.000106185971602796
931,0.000549793243408203,0.000104665484677877
932,0.000558376312255859,0.000116113519708438
933,0.000540256500244141,0.0000859299721285825
934,0.000512123107910156,0.0000720544967720319
935,0.000550746917724609,0.0000952982651707447
936,0.000357151031494141,0.000088530054741473
937,0.000497817993164063,0.0000855972506420779
938,0.000484466552734375,0.0000736802135914562
939,0.000493049621582031,0.000106756161920128
940,0.000455379486083984,0.000115520629149577
941,0.000399589538574219,0.000104532885229725
942,0.0004425048828125,0.0000881826496548983
943,0.000406742095947266,0.0000915552178681816
944,0.000615596771240234,0.00011263253014862
945,0.000485420227050781,0.000141001965166292
946,0.000582695007324219,0.0000821115801694144
947,0.000490665435791016,0.000131834910971566
948,0.000558376312255859,0.000118888423154877
949,0.000528335571289063,0.000163223246809498
950,0.000846385955810547,0.000127966605430564
951,0.000687599182128906,0.00010034221990756
952,0.000779628753662109,0.000108381635071391
953,0.000514984130859375,0.0000813213585121794
954,0.000876903533935547,0.000102116656345464
955,0.000659465789794922,0.000122653788616683
956,0.000784873962402344,0.000122167131652068
957,0.000872611999511719,0.000151000106534556
958,0.000716209411621094,0.000129306421330859
959,0.000696182250976563,0.000128335651922628
960,0.000893115997314453,0.000120889270059167
961,0.000856876373291016,0.000101437509376502
962,0.000867843627929688,0.000102267953548694
963,0.000724315643310547,0.000123617676645327
964,0.000924587249755859,0.000113372985639463
965,0.000903129577636719,0.000152838025112653
966,0.000672340393066406,0.000136721778095295
967,0.00089263916015625,0.000143698182692241
968,0.000947475433349609,0.000111130682331094
969,0.000780105590820313,0.000108333372659019
970,0.000672817230224609,0.000156974328968574
971,0.000628471374511719,0.000134003967821124
972,0.00103092193603516,0.000152575969230347
973,0.000892162322998047,0.000179072510997947
974,0.000753879547119141,0.000127014239438136
975,0.000845432281494141,0.0000941267371012136
976,0.000608444213867188,0.000128051864407607
977,0.000743389129638672,0.000142707411727981
978,0.000722408294677734,0.00017767543752173
979,0.000527858734130859,0.000173385229683507
980,0.000672817230224609,0.000150066646229599
981,0.000610828399658203,0.000158803240177144
982,0.000746250152587891,0.000160475364092749
983,0.000467300415039063,0.000153138241093513
984,0.0005950927734375,0.000123764735556053
985,0.000736236572265625,0.000140031088584729
986,0.000423431396484375,0.000176504480154272
987,0.000407695770263672,0.000154651162855385
988,0.000607013702392578,0.000174738536470696
989,0.000330448150634766,0.000178390637688851
990,0.000543117523193359,0.000198199130066144
991,0.0000777244567871094,0.00018164429193046
992,0.000782012939453125,0.00022125244140625
993,0.000464916229248047,0.000185964046364381
994,0.000565528869628906,0.00018457971591812
995,0.000451564788818359,0.000210185146106756
996,0.000514507293701172,0.000160792431063465
997,0.000109195709228516,0.000274803864742856
998,0.000278472900390625,0.000343762222460177
999,0.000429153442382813,0.000272216807566416
1000,0.00017547607421875,0.000222531273132862
1001,0.000224590301513672,0.000247088163092879
1002,0.000751018524169922,0.000280198537890272
1003,0.000319957733154297,0.000223408259121937
1004,0.000543594360351563,0.000215500854898372
1005,-0.0000829696655273438,0.000285038560020884
1006,0.000762462615966797,0.000339577699869096
1007,0.000235080718994141,0.000228185388832195
1008,0.000530242919921875,0.000157861188480824
1009,0.000244617462158203,0.000224949919353713
1010,-0.000271797180175781,0.00023949950282081
1011,0.000445365905761719,0.000227374837718645
1012,0.000306129455566406,0.000289219720474693
1013,0.00048065185546875,0.00034906043345976
1014,0.000249385833740234,0.000318595741805608
1015,0.000294208526611328,0.000239142273233909
1016,0.000363349914550781,0.000286261196514199
1017,-0.000302314758300781,0.000276196990580828
1018,0.000463962554931641,0.000269550946455834
1019,0.000259876251220703,0.000415705748450115
1020,-0.000133514404296875,0.000365942618301075
1021,0.000404834747314453,0.000331834812117493
1022,0,0.000291219096130254
1023,-0.000273704528808594,0.000377385206837823
1024,-0.000154018402099609,0.000352905888987387
1025,-0.000221729278564453,0.000393672322093016
1026,0.00000333786010742187,0.000385784542196965
1027,-0.000390052795410156,0.000263683619061057
1028,0.000486850738525391,0.000332026613076874
1029,-0.000144004821777344,0.000386180402426013
1030,-0.000303745269775391,0.000460868478715178
1031,0.000255584716796875,0.000597386950862227
1032,-0.000414371490478516,0.000435067853711328
1033,-0.000870227813720703,0.000457262718750161
1034,0.000426769256591797,0.000462704066112831
1035,-0.000436305999755859,0.000566248090629748
1036,0.00026702880859375,0.000493070834384194
1037,-0.000138759613037109,0.000530531002248758
1038,-0.000660419464111328,0.000503034048456038
1039,-0.000485420227050781,0.000475400668291248
1040,-0.000580787658691406,0.000521219440733345
1041,-0.000178813934326172,0.000710681274374214
1042,-0.00149965286254883,0.000536721262724657
1043,0.000663280487060547,0.000742681489479856
1044,-0.000698089599609375,0.000787159799801705
1045,0.000302314758300781,0.000698912505529711
1046,-0.000416278839111328,0.000790185787406206
1047,-0.00176429748535156,0.000732024402851012
1048,-0.00131750106811523,0.000683757217480715
1049,-0.00119924545288086,0.000705378682331923
1050,-0.000588417053222656,0.000695656878665458
1051,-0.00140237808227539,0.000625400973382713
1052,-0.00272226333618164,0.000664546103254302
1053,-0.0000491142272949219,0.000847223565863476
1054,-0.00150823593139648,0.000774430522527303
1055,-0.00181770324707031,0.000832950307196098
1056,-0.000857830047607422,0.000829975037624885
1057,0.000403881072998047,0.000798867194379176
1058,-0.0012054443359375,0.000774129816590605
1059,-0.00255441665649414,0.000847635689718988
1060,-0.000653266906738281,0.00129560508081073
1061,-0.00249338150024414,0.00116699813298582
1062,-0.00275802612304687,0.00100230036401547
1063,0.00111198425292969,0.000870369808161061
1064,-0.00283622741699219,0.00134956204376916
1065,-0.00246143341064453,0.00170878000399793
1066,-0.0013575553894043,0.000966331413234767
1067,0.000232696533203125,0.00079795589021726
1068,-0.00452947616577148,0.00100404107453846
1069,-0.00114631652832031,0.000984251035347608
1070,-0.00367450714111328,0.0015235883686971
1071,-0.00100040435791016,0.0021248651349523
1072,-0.00178098678588867,0.00129054089501923
1073,-0.00148677825927734,0.00141467162180021
1074,-0.00124359130859375,0.00129782706238274
1075,0.000237941741943359,0.00127932912480131
1076,-0.00404214859008789,0.00132103137050059
1077,-0.00136947631835937,0.00121175346263303
1078,-0.00357770919799805,0.00160525796949874
1079,-0.000104904174804687,0.00126037505290665
1080,-0.00316905975341797,0.00150025792189275
1081,-0.00273799896240234,0.00218190012850971
1082,-0.00269937515258789,0.00249727226995154
1083,0.00195217132568359,0.00161973321651802
1084,-0.00482082366943359,0.00169159351219673
1085,-0.000226497650146484,0.00195023203219714
1086,-0.00113487243652344,0.00168286527508409
1087,-0.00143527984619141,0.00175555667241085
1088,-0.00274515151977539,0.0024443132260007
1089,-0.000151634216308594,0.0028794268909827
1090,-0.00248336791992187,0.00274446193673782
1091,-0.00164461135864258,0.00228744465612469
1092,-0.00148773193359375,0.0019504707898306
1093,-0.00401878356933594,0.00202470964407583
1094,0.000922203063964844,0.00254766949448686
1095,0.00111007690429687,0.0028292609509941
1096,-0.00421285629272461,0.00268996482197723
1097,-0.00143766403198242,0.00267224921009703
1098,0.00131511688232422,0.00261762736310762
1099,-0.00753402709960938,0.00384775713483352
1100,0.00131034851074219,0.00199026323396763
