Wavelength (nm),Absorbance (AU),Std.Dev.
190,0.582196235656738,0.509387581324685
191,1.38158130645752,0.94879266414283
192,1.88168334960937,0.782245459548584
193,0.84942626953125,0.317891719400918
194,0.530789852142334,0.109202657886619
195,0.812937259674072,0.277233692952016
196,1.68945217132568,0.564328084117243
197,1.47600555419922,0.313724407960858
198,0.981347560882568,0.756926027904147
199,1.91352367401123,1.61803646194624
200,1.87686395645142,0.815854703047286
201,1.62718772888184,0.262315667235763
202,2.15425634384155,0.179899670932335
203,3.39206504821777,0.268126434108927
204,3.00612497329712,0.194989968066268
205,2.91455984115601,0.168577996650185
206,3.02366352081299,0.113841807447013
207,3.17744398117065,0.0732226536451387
208,3.05640935897827,0.0422370337278488
209,2.87223672866821,0.0427601693533817
210,3.03389120101929,0.0455019443641474
211,3.02784395217896,0.0545827680175083
212,2.99598073959351,0.0478714881983443
213,3.01768493652344,0.0523042444348533
214,2.9456000328064,0.0476130555560889
215,2.99252891540527,0.0310183522445077
216,2.94043493270874,0.0426911141023178
217,2.92426729202271,0.0390205157678285
218,2.95029067993164,0.0287899668330233
219,2.85651445388794,0.0443678148926905
220,2.80170965194702,0.0291019311663938
221,2.69108724594116,0.0318685353025187
222,2.6422438621521,0.0204021821575277
223,2.60756969451904,0.010117670290706
224,2.49262428283691,0.012613177533283
225,2.41426134109497,0.0142704842053702
226,2.31890439987183,0.00880600038909738
227,2.20264720916748,0.00610580401436679
228,2.10232543945312,0.00520116591014513
229,2.01924562454224,0.00348649139449407
230,1.93195629119873,0.00260219399918328
231,1.85146617889404,0.00131526867306579
232,1.78447532653809,0.00154585164590315
233,1.71279430389404,0.0017500440813371
234,1.65009164810181,0.00175011060143828
235,1.60247611999512,0.00176415623279835
236,1.5597186088562,0.00122246614934417
237,1.52277565002441,0.00139807483829523
238,1.49373579025269,0.000796166708263828
239,1.47061681747437,0.000495117727350847
240,1.45487928390503,0.00050380006491978
241,1.44342660903931,0.000823197174651728
242,1.43787431716919,0.000567672584094198
243,1.440345287323,0.000770625499493529
244,1.44976186752319,0.000980992995837563
245,1.46422290802002,0.000809632986838489
246,1.48669767379761,0.000905603024752181
247,1.51324462890625,0.00101765942386066
248,1.54993295669556,0.00168773519678338
249,1.59215307235718,0.00209518232033636
250,1.64136123657227,0.00177573235793133
251,1.69367265701294,0.00275145204908346
252,1.7519998550415,0.00362440407721757
253,1.81355381011963,0.00369357262474353
254,1.88359403610229,0.00485766611378678
255,1.95226335525513,0.00345880096741965
256,2.0085768699646,0.00372527014917647
257,2.08537197113037,0.007381343594506
258,2.16358423233032,0.00838450673696878
259,2.20634126663208,0.00641943621212842
260,2.24594402313232,0.00891531232251475
261,2.2874903678894,0.0110399421508801
262,2.28295707702637,0.0173038704638348
263,2.31523275375366,0.0157598399350708
264,2.34440803527832,0.00937421318567154
265,2.33159589767456,0.0133534544379414
266,2.29126310348511,0.0154771966703179
267,2.2615122795105,0.00974213636395602
268,2.21874046325684,0.00747313117169716
269,2.11009120941162,0.00883092447640686
270,2.02650213241577,0.0070966329723966
271,1.96363544464111,0.00445964052148977
272,1.87478256225586,0.00258144259126896
273,1.7994270324707,0.00224044545716556
274,1.68638563156128,0.00252605554570321
275,1.5339412689209,0.00137971857366422
276,1.38070249557495,0.0013824580783636
277,1.23569202423096,0.00110167505994586
278,1.10669755935669,0.000911656781005299
279,0.996685028076172,0.000632365899203555
280,0.906367778778076,0.000318081481076827
281,0.830527782440186,0.000252549093140189
282,0.76989221572876,0.00022969498829937
283,0.717998027801514,0.000228061796460938
284,0.674641609191895,0.000279118820852104
285,0.638839244842529,0.000343952660736642
286,0.608323097229004,0.000319342796881963
287,0.582100868225098,0.000200180759715102
288,0.560313224792481,0.000232211373275973
289,0.542089939117432,0.000185978717891119
290,0.526680946350098,0.000233531454620383
291,0.513678073883057,0.000192415462787616
292,0.50273323059082,0.000236691898128789
293,0.493890285491943,0.000211044484730646
294,0.486625671386719,0.00025135786827303
295,0.480535507202148,0.000279503053477931
296,0.475457191467285,0.000237087347929775
297,0.471709728240967,0.000156507224459922
298,0.46837329864502,0.000145309425008704
299,0.466236114501953,0.000156126126904552
300,0.464750289916992,0.000218256029699202
301,0.463927745819092,0.000261981121790468
302,0.464194774627686,0.000401269164030678
303,0.464504718780518,0.000237635279436958
304,0.465044021606445,0.000205604751254453
305,0.466896057128906,0.000217169881095738
306,0.46821928024292,0.000208049686004995
307,0.469799041748047,0.000196535594700543
308,0.472354888916016,0.000158301318749875
309,0.474854946136475,0.000161193530065418
310,0.477225780487061,0.000136395432932211
311,0.48001766204834,0.000180221737839015
312,0.482820987701416,0.000232985582774161
313,0.485575199127197,0.000297564726044276
314,0.488331317901611,0.000243823769711013
315,0.491741180419922,0.000264104084914205
316,0.494418144226074,0.000248556142756584
317,0.49680757522583,0.00022320054163087
318,0.499102115631104,0.000354592475287764
319,0.501340389251709,0.000258091828537537
320,0.503092288970947,0.000270171069482815
321,0.505131721496582,0.000242113098610275
322,0.50604248046875,0.000235756315323147
323,0.506288528442383,0.000181363682649862
324,0.507528305053711,0.000314735642942296
325,0.507423877716064,0.000422140680208127
326,0.506814002990723,0.000420612540693772
327,0.506422996520996,0.000327831008172051
328,0.50479793548584,0.00030125241795164
329,0.502602577209473,0.000276420818473116
330,0.50007438659668,0.0003173773104851
331,0.49766731262207,0.000270514220891712
332,0.494362354278564,0.000219866919723351
333,0.491097450256348,0.00018607649850665
334,0.487008094787598,0.000261313723728991
335,0.48240852355957,0.00021626339390653
336,0.477449893951416,0.000180342813927808
337,0.472214698791504,0.000182079380680589
338,0.465958595275879,0.000214955736906164
339,0.46027946472168,0.00023771181254021
340,0.453937530517578,0.000305044622846874
341,0.447177410125732,0.000247779196762924
342,0.439846515655518,0.000163776731389679
343,0.432502269744873,0.000183779746558318
344,0.425032615661621,0.000203456977900717
345,0.416346549987793,0.000174279904350469
346,0.408634185791016,0.000228432372967406
347,0.400262832641602,0.000170361044339004
348,0.391496658325195,0.000217592452040265
349,0.383199214935303,0.00023505702102406
350,0.374207019805908,0.000269692621868275
351,0.365053653717041,0.000275339500182927
352,0.355316162109375,0.000216826197965205
353,0.346311092376709,0.000197983339342
354,0.33725118637085,0.000184801315069924
355,0.327910900115967,0.000203854438051784
356,0.318705558776855,0.000187522540376746
357,0.309584140777588,0.000203555298686551
358,0.2998948097229,0.000243558786391371
359,0.290748596191406,0.00034997638559932
360,0.281731605529785,0.000326541205418027
361,0.272018909454346,0.000272590750273828
362,0.262518882751465,0.000321381169815751
363,0.253771305084229,0.000433560105363061
364,0.245890617370605,0.000330593646827415
365,0.237698554992676,0.000330593646827415
366,0.230232238769531,0.000208739244447558
367,0.223671436309814,0.000184017137072637
368,0.217160224914551,0.000153787191355143
369,0.210076332092285,0.000152023583258493
370,0.202694416046143,0.000182214196985094
371,0.195831298828125,0.000185797688092434
372,0.189332008361816,0.000150942875864062
373,0.18233060836792,0.000134866543444832
374,0.175894737243652,0.000143302061643687
375,0.169432163238525,0.000164391987543435
376,0.162891864776611,0.000226211869495285
377,0.15672492980957,0.000180625009182002
378,0.150945663452148,0.000218680660825827
379,0.144763469696045,0.000158725904419574
380,0.138922214508057,0.000121018978605215
381,0.13334321975708,0.000171231685723629
382,0.128483772277832,0.000186589006063776
383,0.123273372650146,0.000164533005194311
384,0.118068218231201,0.000173532041928001
385,0.113234996795654,0.000186471985665897
386,0.108456611633301,0.000147258555521817
387,0.10386323928833,0.000210133214345271
388,0.0997042655944824,0.00020304978163192
389,0.0947957038879395,0.000175284197848218
390,0.0907669067382813,0.000180206597608146
391,0.0872201919555664,0.000127543021118016
392,0.0834569931030273,0.000180861511781709
393,0.0797481536865234,0.000224905440871943
394,0.0755152702331543,0.000177890299492376
395,0.0724053382873535,0.00014794867011085
396,0.0695552825927734,0.00014156523497514
397,0.0660452842712402,0.000146964894371763
398,0.0628113746643066,0.000104365265047489
399,0.0598983764648438,0.000140358700247271
400,0.0570511817932129,0.000166732165626166
401,0.0543670654296875,0.000204922398410373
402,0.051997184753418,0.000196993197687756
403,0.0497055053710938,0.000201814250574124
404,0.0470070838928223,0.000160865946519284
405,0.0446186065673828,0.000128027003071039
406,0.0422439575195313,0.000182318985189138
407,0.0400490760803223,0.000241530141309774
408,0.0384502410888672,0.000229639547548322
409,0.0364766120910645,0.000183189889202482
410,0.034583568572998,0.000147945596395659
411,0.0330047607421875,0.000189706893256821
412,0.0310649871826172,0.000230745831665906
413,0.0294919013977051,0.000231127845149248
414,0.0280108451843262,0.000201037622243662
415,0.0259513854980469,0.000169767422094118
416,0.0250515937805176,0.000196387454597749
417,0.0239696502685547,0.000207957863687101
418,0.0224294662475586,0.000227162739878688
419,0.0213541984558105,0.000200611915282847
420,0.0203289985656738,0.000180584722573008
421,0.0191879272460937,0.000189519826831961
422,0.0182723999023437,0.00018506688379979
423,0.0172052383422852,0.000120395480851675
424,0.0157680511474609,0.000148292523055506
425,0.0151734352111816,0.000155852093345741
426,0.0143332481384277,0.000148046995302255
427,0.0136899948120117,0.000147107161395987
428,0.0127429962158203,0.000166811241829628
429,0.0121974945068359,0.000204695923043618
430,0.0116281509399414,0.000132577881286675
431,0.0105609893798828,0.000166685793169248
432,0.00986051559448242,0.000144105837930256
433,0.00956296920776367,0.000100074476808888
434,0.00902318954467773,0.000109682911922056
435,0.00795555114746094,0.000147307956640503
436,0.00816917419433594,0.000142452257918074
437,0.00753021240234375,0.000139764542015058
438,0.00691127777099609,0.00012147841900361
439,0.00633907318115234,0.000124690865450554
440,0.00590658187866211,0.000152041529967843
441,0.00625324249267578,0.000169416155659813
442,0.00545358657836914,0.000179473297061123
443,0.00520849227905273,0.000169606627000173
444,0.00477695465087891,0.000126177275111389
445,0.00441265106201172,0.000100681543485438
446,0.00409126281738281,0.000131361497314616
447,0.00385951995849609,0.000110047156716825
448,0.00373744964599609,0.000110422555301527
449,0.00336503982543945,0.000139526822121947
450,0.00334835052490234,0.000121296726215429
451,0.00292444229125977,0.000107336033719849
452,0.00287294387817383,0.000143906894759666
453,0.00240993499755859,0.000123374646215792
454,0.00214004516601562,0.000111431038835483
455,0.00237751007080078,0.000110045090549768
456,0.00197792053222656,0.0000995802226018311
457,0.00177001953125,0.000123345155442999
458,0.00192022323608398,0.0000806517582392348
459,0.00160789489746094,0.00010861425218035
460,0.00125360488891602,0.00012715379394032
461,0.00155544281005859,0.000103413217002456
462,0.00107479095458984,0.000109477491659079
463,0.00130033493041992,0.000101053483420941
464,0.00113773345947266,0.000092575204967671
465,0.00115633010864258,0.0000983880422527055
466,0.00120067596435547,0.000146298116244955
467,0.000591278076171875,0.0000979897459633797
468,0.000857830047607422,0.000131486063086555
469,0.000556468963623047,0.0000867214603714695
470,0.000437259674072266,0.0000649567032353094
471,0.000563621520996094,0.000100609250486135
472,0.000290870666503906,0.000114774218622821
473,0.000457763671875,0.000111730587918149
474,0.000211715698242187,0.000118228693943341
475,0.000498294830322266,0.000104548110102034
476,0.000283718109130859,0.000110506947115125
477,0.000119686126708984,0.0000870015497304801
478,0.000296592712402344,0.000113637408115123
479,0.000216484069824219,0.000125022301789199
480,0.000175952911376953,0.0000782434419699761
481,-0.0000348091125488281,0.000089551490958458
482,0.000118255615234375,0.0000863062083949949
483,0.0000972747802734375,0.000115833158412888
484,-0.0000352859497070312,0.000112353601247389
485,0.000896453857421875,0.000127325343349635
486,0.000681400299072266,0.0000774445789635503
487,-0.000527381896972656,0.0000856224819619014
488,-0.000342845916748047,0.000117632933909362
489,-0.00005340576171875,0.000127603619250555
490,0.0000410079956054688,0.000105029811186176
491,0.00000095367431640625,0.000101084978975211
492,0.0000424385070800781,0.0000806038175405788
493,0.0000586509704589844,0.0000832883152915075
494,-0.0000405311584472656,0.000091775979608605
495,-0.000195503234863281,0.000091691706403518
496,-0.000138759613037109,0.0000704816292453838
497,-0.00009918212890625,0.0000559760925256976
498,-0.000209331512451172,0.0000933432335147259
499,-0.00000667572021484375,0.0000954008044024876
500,-0.0000457763671875,0.0000932871912639365
501,0.0000205039978027344,0.0000795346655522368
502,-0.000119209289550781,0.0000748026655874141
503,-0.0000891685485839844,0.0000995139842447007
504,-0.000247955322265625,0.0000797815684877017
505,0.0000491142272949219,0.000102259059909791
506,-0.000119209289550781,0.0000985727479904617
507,-0.000110626220703125,0.000106299398751013
508,-0.00000238418579101562,0.0000827913450785266
509,-0.000147342681884766,0.0000728110198845916
510,0.0000782012939453125,0.0000776951974663966
511,0.00000715255737304688,0.0000756249301383057
512,-0.000124454498291016,0.0000918477985925346
513,-0.000119686126708984,0.0000999221338646409
514,0.0000720024108886719,0.000112999340111087
515,0.0000357627868652344,0.0000924449401817608
516,0.0000147819519042969,0.0000865272233750439
517,0.0000834465026855469,0.0000660570072394373
518,-0.000072479248046875,0.0000997399270502655
519,0.0000910758972167969,0.000088198118938353
520,0.0000109672546386719,0.000118436213994892
521,-0.00000476837158203125,0.0000938436849088273
522,0.000000476837158203125,0.0000957196407518357
523,0.0000662803649902344,0.000109448411213006
524,0.0000109672546386719,0.000104737148831893
525,0.000123977661132812,0.0000973215177864755
526,0.000263690948486328,0.0000955579761495617
527,0.000197887420654297,0.000089754383296604
528,0.000148296356201172,0.0000841816805637617
529,0.000368118286132812,0.0000638214072384029
530,0.000163078308105469,0.000088051051017369
531,0.000177383422851562,0.0000887070919359855
532,0.000393867492675781,0.0000949588606751771
533,0.000349521636962891,0.000097417259588071
534,0.000233173370361328,0.0000987409904903014
535,0.000362873077392578,0.0000939115015484903
536,0.000235557556152344,0.0000878105693047875
537,0.000282764434814453,0.0000663729234079125
538,0.000309944152832031,0.0000625293348990841
539,0.000401020050048828,0.0000858121428056922
540,0.000401020050048828,0.0000869335736317227
541,0.000348567962646484,0.0000799722873429742
542,0.000386714935302734,0.0000746246343974672
543,0.000268936157226562,0.0000967286242251434
544,0.000392436981201172,0.000082994325853502
545,0.000390052795410156,0.0000855999069207064
546,0.000367641448974609,0.0000765349634269759
547,0.000314235687255859,0.0000895870302878447
548,0.000496864318847656,0.0000768477486481359
549,0.000331401824951172,0.0000720891997870035
550,0.000474452972412109,0.000104845637548629
551,0.000403881072998047,0.0000990307092230359
552,0.000544071197509766,0.0000886532484761318
553,0.000406265258789063,0.0000766522220625636
554,0.000441551208496094,0.0000582161345274581
555,0.000593662261962891,0.0000786622349257388
556,0.000478267669677734,0.0000896301662430695
557,0.000449657440185547,0.0000819189029286376
558,0.000448703765869141,0.0000682327148688634
559,0.000544548034667969,0.0000864457241112437
560,0.000665664672851563,0.0000924277216734953
561,0.000478267669677734,0.0000706556184463175
562,0.000439167022705078,0.0000616799508553319
563,0.000570297241210938,0.0000684971225145341
564,0.000566959381103516,0.0000672272753187657
565,0.000360488891601562,0.0000673607383209621
566,0.00046539306640625,0.0000938000626063294
567,0.000673770904541016,0.0000608056192829445
568,0.000643253326416016,0.0000437847135938972
569,0.000743389129638672,0.0000695218111019613
570,0.000717639923095703,0.0000853591789415665
571,0.000716686248779297,0.0000800319713441813
572,0.000706195831298828,0.0000661326897014674
573,0.000755786895751953,0.0000649356975098808
574,0.000872135162353516,0.0000862245002284316
575,0.000679492950439453,0.000058964149033141
576,0.000698089599609375,0.0000701550467083032
577,0.00072479248046875,0.0000732981075952724
578,0.00102949142456055,0.0000612972265824434
579,0.000439643859863281,0.0000703201442940742
580,0.000890731811523438,0.0000692908545961102
581,0.000822544097900391,0.0000763609710961148
582,0.00114250183105469,0.0000664704841355386
583,0.0000696182250976563,0.0000714699210775569
584,0.000823497772216797,0.0000722105290033222
585,0.000987052917480469,0.000054409606268295
586,0.000553607940673828,0.0000589805353268664
587,0.000756740570068359,0.0000735736711825435
588,0.000764369964599609,0.0000770368762525052
589,0.000609397888183594,0.0000607270420983418
590,0.000738620758056641,0.0000515050353984558
591,0.000683784484863281,0.0000508687144852482
592,0.000794410705566406,0.0000619851624797397
593,0.0010218620300293,0.0000532906859243336
594,0.000603675842285156,0.000075302537087928
595,0.000916481018066406,0.000072275049772607
596,0.000623226165771484,0.0000759130147215134
597,0.000653266906738281,0.0000837063150691669
598,0.000754356384277344,0.0000687241295783862
599,0.000926017761230469,0.0000772638068487572
600,0.000630378723144531,0.0000698204239567685
601,0.000778675079345703,0.0000653232100179036
602,0.000725269317626953,0.0000631822729866284
603,0.000799179077148438,0.0000783973074850534
604,0.000750064849853516,0.000057539448104139
605,0.000664710998535156,0.0000587710260558563
606,0.000774383544921875,0.000066516647167832
607,0.000748157501220703,0.0000839612615045889
608,0.000832557678222656,0.000055367549875025
609,0.000611782073974609,0.0000647814474032167
610,0.000920772552490234,0.0000782027477036237
611,0.000617027282714844,0.000076662603418203
612,0.000726699829101563,0.0000562445548159259
613,0.000701427459716797,0.0000617959616728236
614,0.000767230987548828,0.0000545733825943855
615,0.000720500946044922,0.0000711862142876225
616,0.000585079193115234,0.0000734762584085778
617,0.000575065612792969,0.000068507080180254
618,0.000636577606201172,0.0000521902571843845
619,0.000491142272949219,0.0000563757858955908
620,0.000645160675048828,0.0000628810640491858
621,0.000485420227050781,0.0000599811109145059
622,0.000727176666259766,0.0000663386575701058
623,0.000591278076171875,0.0000934892725612829
624,0.000725269317626953,0.0000886070708976141
625,0.000720500946044922,0.000075872568922317
626,0.000676631927490234,0.0000768743728328566
627,0.000696659088134766,0.0000899669278036556
628,0.0006561279296875,0.000091500565447273
629,0.000648021697998047,0.0000730588600446919
630,0.000744819641113281,0.0000509892566317223
631,0.00061798095703125,0.0000560298878889179
632,0.000621318817138672,0.0000606614833594866
633,0.000644207000732422,0.0000528827242217535
634,0.000639438629150391,0.0000881594406402432
635,0.000613212585449219,0.0000843125766956342
636,0.000684261322021484,0.0000720402952658564
637,0.000661373138427734,0.0000626691750059864
638,0.000559806823730469,0.0000601901857255378
639,0.000689506530761719,0.0000748163427471665
640,0.000684738159179688,0.0000807165738628095
641,0.000701427459716797,0.0000919121403157268
642,0.000513553619384766,0.0000713680439945207
643,0.000583171844482422,0.0000746901139843801
644,0.000635623931884766,0.0000834492274248232
645,0.000456809997558594,0.0000922479657073174
646,0.000637531280517578,0.0000919393482589342
647,0.000615119934082031,0.000088398973283817
648,0.000514507293701172,0.000100710897693207
649,0.000453472137451172,0.000090473489575435
650,0.000535964965820313,0.0000696378183880947
651,0.000536918640136719,0.00008263465508436
652,0.000648021697998047,0.0000738143304829501
653,0.000678539276123047,0.0000523848536212937
654,0.000674247741699219,0.0000635590126701155
655,0.000457763671875,0.0000753825105490475
656,0.00363016128540039,0.0000587342609030259
657,-0.0014185905456543,0.0000576332225171598
658,0.0000400543212890625,0.0000625075134589155
659,0.000535011291503906,0.0000735226615404217
660,0.000499725341796875,0.0000567616506193275
661,0.000595569610595703,0.0000596694593889166
662,0.000620841979980469,0.0000663386575701058
663,0.000500202178955078,0.0000857312898462544
664,0.000545024871826172,0.0000806926263277373
665,0.000575065612792969,0.000106136710784532
666,0.0006103515625,0.000092854777867417
667,0.000489711761474609,0.0000874160996859054
668,0.000630378723144531,0.0000503441591464761
669,0.00055694580078125,0.0000712548536778188
670,0.000593185424804688,0.0000823203803617919
671,0.000508785247802734,0.000049225209590194
672,0.000585079193115234,0.0000596618377948903
673,0.000589370727539063,0.0000724415932267492
674,0.000553131103515625,0.000069867627969545
675,0.000601291656494141,0.0000711143114232878
676,0.000634670257568359,0.0000481593726740568
677,0.000543117523193359,0.000054092126436675
678,0.000561237335205078,0.0000602996362414438
679,0.000608921051025391,0.0000541362446945255
680,0.000597953796386719,0.0000608766255310627
681,0.0006561279296875,0.0000549915437444248
682,0.000664234161376953,0.0000705025951214882
683,0.000620365142822266,0.0000628521299332864
684,0.000700950622558594,0.0000607223616785874
685,0.000674247741699219,0.0000500576826293641
686,0.000673770904541016,0.0000727422860165592
687,0.000705718994140625,0.0000543238707528993
688,0.000759124755859375,0.0000489948729816899
689,0.000748634338378906,0.0000620090011645124
690,0.000662326812744141,0.0000648358273764936
691,0.000684261322021484,0.0000616061798076981
692,0.000782966613769531,0.0000642775781783895
693,0.000768184661865234,0.0000638107183773808
694,0.000756740570068359,0.0000618695064315759
695,0.000764846801757813,0.0000601117496845986
696,0.000681877136230469,0.0000582737148527934
697,0.000749111175537109,0.0000706942245607252
698,0.000733375549316406,0.0000803481223605113
699,0.000654220581054688,0.0000826264000114884
700,0.000639438629150391,0.0000724196188734351
701,0.000704765319824219,0.0000585539721283578
702,0.000610828399658203,0.0000648428408253081
703,0.000491619110107422,0.0000560004590923215
704,0.000560283660888672,0.0000809078989716743
705,0.000524520874023438,0.0000674905685274192
706,0.000417232513427734,0.0000682893409203859
707,0.000490188598632813,0.0000723882153686961
708,0.000412464141845703,0.0000611616849701842
709,0.000430583953857422,0.0000620694736300391
710,0.000362873077392578,0.0000488891815871288
711,0.000381946563720703,0.0000572691154238557
712,0.000502109527587891,0.0000609689964898856
713,0.00043487548828125,0.000063378098349352
714,0.000400066375732422,0.0000641642824416404
715,0.000508785247802734,0.0000724243282247058
716,0.000508785247802734,0.0000632362303590285
717,0.00045013427734375,0.0000565016821878845
718,0.000482559204101563,0.0000626909401750865
719,0.000608921051025391,0.0000713632649377641
720,0.000543117523193359,0.0000480743145977427
721,0.000638008117675781,0.0000620822935500794
722,0.000658512115478516,0.000067960587617224
723,0.000606060028076172,0.0000821655595201569
724,0.000591754913330078,0.0000639370886950123
725,0.000741481781005859,0.0000771681058459922
726,0.000702857971191406,0.0000591499148848309
727,0.000693798065185547,0.0000618106776250886
728,0.000768661499023438,0.0000640419109462313
729,0.000737190246582031,0.0000578527484439968
730,0.000675201416015625,0.0000584840337159856
731,0.000763416290283203,0.0000622578432430869
732,0.000741481781005859,0.0000579764179997118
733,0.000702381134033203,0.0000752421234738962
734,0.000721931457519531,0.0000731754744206562
735,0.000701427459716797,0.0000696933027974591
736,0.000693321228027344,0.0000731397324451828
737,0.000682830810546875,0.0000665593621689386
738,0.000628948211669922,0.0000635285978053771
739,0.00061798095703125,0.0000600095348396395
740,0.000586986541748047,0.0000589043486277857
741,0.0005340576171875,0.0000622505385565378
742,0.000534534454345703,0.000071512856942435
743,0.000581264495849609,0.000073270183914674
744,0.00054931640625,0.0000530597856133824
745,0.000515460968017578,0.0000690607719048755
746,0.000508785247802734,0.0000668576030496046
747,0.000518321990966797,0.0000779056193005754
748,0.000480175018310547,0.0000606952081265996
749,0.000539779663085938,0.0000860925494575372
750,0.000535488128662109,0.0000662786497264635
751,0.000611782073974609,0.0000595063352468893
752,0.000478744506835938,0.0000612044222497627
753,0.000560760498046875,0.0000666737034263931
754,0.0005950927734375,0.0000615711075965425
755,0.000623703002929688,0.0000614990546051134
756,0.000598430633544922,0.0000429491069226367
757,0.000622272491455078,0.0000672374210454103
758,0.000699520111083984,0.0000614972059824451
759,0.000635623931884766,0.0000518613845439745
760,0.000691890716552734,0.0000587497437715967
761,0.000723838806152344,0.0000607055091795315
762,0.000685691833496094,0.0000601807410165206
763,0.000725746154785156,0.0000595807981472006
764,0.000716209411621094,0.0000739143739305825
765,0.000789642333984375,0.000061495357304205
766,0.000703811645507813,0.0000445147344312843
767,0.000650882720947266,0.0000550432032614479
768,0.000742435455322266,0.0000552956372648228
769,0.000833511352539063,0.0000513901278483829
770,0.000721931457519531,0.0000585995813413493
771,0.000731468200683594,0.000045473617530591
772,0.000708103179931641,0.0000565087240868589
773,0.000706195831298828,0.0000605057315327356
774,0.000616550445556641,0.0000535588115009269
775,0.000637054443359375,0.0000642616580349432
776,0.000692367553710938,0.0000691084947939477
777,0.000599384307861328,0.0000752708259865299
778,0.000548362731933594,0.0000759414636673678
779,0.000597953796386719,0.0000500849286145788
780,0.000564098358154297,0.0000452920003957524
781,0.000492095947265625,0.0000503486753303063
782,0.000539302825927734,0.0000509368335341207
783,0.000480175018310547,0.0000543008455104323
784,0.000457763671875,0.0000425842547016793
785,0.000438213348388672,0.0000567516353302121
786,0.000524044036865234,0.0000629948629454079
787,0.000504016876220703,0.0000670562585115316
788,0.000473499298095703,0.0000707199502619263
789,0.000492095947265625,0.0000637090847551363
790,0.000484943389892578,0.0000645793152253859
791,0.000530719757080078,0.0000646127545830789
792,0.000471115112304688,0.0000681760417845635
793,0.000550746917724609,0.0000625983859423601
794,0.000504970550537109,0.0000585335820569384
795,0.000546932220458984,0.0000641252908016085
796,0.000473499298095703,0.0000605780276570313
797,0.000481128692626953,0.0000530522859212876
798,0.000509262084960938,0.0000684805231873754
799,0.000586032867431641,0.0000601826300768998
800,0.000627994537353516,0.0000567896840322853
801,0.000470638275146484,0.0000546743240566554
802,0.000581741333007813,0.0000506884852062924
803,0.000572681427001953,0.0000502401748712653
804,0.000645160675048828,0.0000695299869644314
805,0.000583648681640625,0.0000659519401627354
806,0.000599384307861328,0.0000569715649859835
807,0.000608921051025391,0.0000534823413574598
808,0.000597953796386719,0.0000614694699709997
809,0.000607013702392578,0.000072293923006973
810,0.00049591064453125,0.0000848435217966421
811,0.000564098358154297,0.0000559903076449269
812,0.000630378723144531,0.0000551422538685384
813,0.000515937805175781,0.0000808994676988544
814,0.000537872314453125,0.0000692416155241629
815,0.000527381896972656,0.0000760581425662415
816,0.000470638275146484,0.0000578045832739586
817,0.000457763671875,0.0000708676918150303
818,0.000430107116699219,0.0000660397945838465
819,0.000509262084960938,0.0000718158553529709
820,0.000470161437988281,0.0000637090847551363
821,0.000461578369140625,0.0000694006957235587
822,0.000399112701416016,0.0000594795822367556
823,0.000452995300292969,0.0000585491179935265
824,0.000467300415039063,0.0000386002551180624
825,0.000395774841308594,0.0000491893989313669
826,0.000398635864257812,0.0000519818118092027
827,0.000444412231445313,0.0000612322783183747
828,0.000430583953857422,0.0000690179578119761
829,0.000351905822753906,0.0000732438017746732
830,0.000388145446777344,0.0000588280632613697
831,0.000471115112304688,0.0000687588600362973
832,0.000455379486083984,0.0000725842643669765
833,0.000470638275146484,0.0000804612370082336
834,0.000471115112304688,0.0000907770716944186
835,0.000507354736328125,0.0000663420849503137
836,0.000596046447753906,0.0000624037574134462
837,0.000502109527587891,0.0000964720647816889
838,0.000576496124267578,0.0000916098376846597
839,0.000621318817138672,0.0000708933545686562
840,0.000645160675048828,0.0000698187956629692
841,0.0006866455078125,0.0000734096961012647
842,0.000716686248779297,0.000069143032185965
843,0.000702857971191406,0.0000638071550258003
844,0.000642776489257813,0.0000705718994140625
845,0.000690460205078125,0.0000794889115971025
846,0.000728607177734375,0.000069510363278929
847,0.000807762145996094,0.0000665542378163074
848,0.00074005126953125,0.0000578773070682061
849,0.000774860382080078,0.0000569326394108072
850,0.00079345703125,0.0000687489388386357
851,0.000685691833496094,0.0000866480164985646
852,0.000739574432373047,0.0000706137713372546
853,0.000765800476074219,0.0000528601465900529
854,0.000872135162353516,0.0000530512144501549
855,0.000734329223632813,0.0000760835488335635
856,0.000728607177734375,0.0000664687737778985
857,0.000774383544921875,0.0000693089001578381
858,0.000759601593017578,0.0000635572239633266
859,0.000758647918701172,0.0000775853767386878
860,0.000710964202880859,0.0000628702153161984
861,0.00067901611328125,0.0000673927975897912
862,0.0005950927734375,0.0000722152519899084
863,0.000658512115478516,0.0000584295792966211
864,0.000590801239013672,0.0000725184510268009
865,0.000631332397460938,0.0000837076732213606
866,0.000731945037841797,0.0000771194737311441
867,0.000644207000732422,0.0000672255842154583
868,0.000488758087158203,0.0000737341979919977
869,0.000599861145019531,0.0000790471756285793
870,0.000498771667480469,0.000077629323673129
871,0.000496387481689453,0.0000678735444643591
872,0.000535964965820313,0.0000828284124509739
873,0.000428676605224609,0.0000640596604299418
874,0.000484466552734375,0.0000741094537176686
875,0.000529289245605469,0.000072723529141603
876,0.000521183013916016,0.000064923441031469
877,0.000411033630371094,0.0000544315412041863
878,0.000572681427001953,0.0000590402585646648
879,0.000555992126464844,0.0000549687981764665
880,0.000519752502441406,0.0000685220139656063
881,0.000474929809570313,0.0000592017864605427
882,0.000413894653320313,0.0000635679554490871
883,0.000623226165771484,0.0000608850286818421
884,0.000590324401855469,0.000091279137610638
885,0.000660896301269531,0.0000913563250728666
886,0.000589370727539063,0.0000921123014197325
887,0.000593185424804688,0.0000719645065679637
888,0.000727176666259766,0.0000763222522674755
889,0.000631809234619141,0.0000765527864344197
890,0.000688076019287109,0.0000578861456223068
891,0.000704765319824219,0.0000732189628416063
892,0.000735759735107422,0.000086902182113981
893,0.000742912292480469,0.0000786174193138733
894,0.00070953369140625,0.0000762492287245153
895,0.000838756561279297,0.0000534972191128096
896,0.000840663909912109,0.000060428645753635
897,0.000834941864013672,0.0000651611541888794
898,0.000899314880371094,0.0000666685878623832
899,0.0008392333984375,0.0000799210941526157
900,0.000927925109863281,0.0000798072139378128
901,0.000945091247558594,0.0000695545087855967
902,0.000918388366699219,0.0000813045808436467
903,0.000867366790771484,0.0000772505630120782
904,0.000941276550292969,0.0000849078154664137
905,0.000949859619140625,0.000086291717430414
906,0.000858783721923828,0.0000647041844546103
907,0.000985145568847656,0.0000719992529574457
908,0.000866889953613281,0.0000961344392612014
909,0.000873565673828125,0.0000849854387554378
910,0.000993251800537109,0.0000652099875643243
911,0.000860214233398438,0.0000949109597133544
912,0.000798225402832031,0.0000978713349202538
913,0.000806331634521484,0.000109772015121294
914,0.000861644744873047,0.0000792167032169211
915,0.000829696655273438,0.0000692711631673236
916,0.000719547271728516,0.000102083251774785
917,0.000796794891357422,0.0000840424645876628
918,0.000796318054199219,0.000113563351795991
919,0.000736236572265625,0.0000935816460817586
920,0.000667095184326172,0.000100557257790333
921,0.000589847564697266,0.0000994339826365891
922,0.000586032867431641,0.0000865403612295972
923,0.000462055206298828,0.0000771622126766494
924,0.000545024871826172,0.0000719550273679181
925,0.000481605529785156,0.0000834832791622727
926,0.000702857971191406,0.0000897873099970995
927,0.000524520874023438,0.0000992371333261762
928,0.00043487548828125,0.0000793457604371378
929,0.000422000885009766,0.000124391452122977
930,0.000523567199707031,0.00009014870996133
931,0.000462532043457031,0.00010825148721839
932,0.000398159027099609,0.000116385391440915
933,0.000481128692626953,0.0000818175309987059
934,0.000352859497070312,0.0000898784286753343
935,0.000388145446777344,0.0000984873646434317
936,0.00043487548828125,0.000101141196642076
937,0.000415325164794922,0.0000863220139456072
938,0.000452041625976563,0.0000571876670335285
939,0.000413894653320313,0.00010104223262949
940,0.000474452972412109,0.000111455521999431
941,0.000418186187744141,0.000098793939045248
942,0.000530719757080078,0.0000967262735617273
943,0.000431060791015625,0.0000797102878340411
944,0.0005645751953125,0.000121497134769201
945,0.000380039215087891,0.000153627430854674
946,0.000518798828125,0.000090307469186097
947,0.000491619110107422,0.000146741938651416
948,0.000563144683837891,0.000122627832889249
949,0.000585079193115234,0.000135058601128391
950,0.000714302062988281,0.000113268649725155
951,0.000730991363525391,0.000118920931148466
952,0.000761508941650391,0.0000979340409538298
953,0.000462532043457031,0.0000793801402591246
954,0.000855922698974609,0.000100115365258728
955,0.000650882720947266,0.000110009959772475
956,0.000574111938476563,0.000127934618665573
957,0.000815391540527344,0.000114649344426269
958,0.000635147094726563,0.000124380484309869
959,0.000733852386474609,0.000166530214815391
960,0.000715255737304688,0.000158373119201125
961,0.000888347625732422,0.000121122269987596
962,0.000811100006103516,0.0000963918973426306
963,0.000667572021484375,0.000127421738396752
964,0.00077056884765625,0.000115514724243542
965,0.000676631927490234,0.000159077907272286
966,0.000696659088134766,0.000148699815700973
967,0.000693321228027344,0.000147023673525855
968,0.000751018524169922,0.000115445811356586
969,0.000747203826904297,0.000109040470634886
970,0.000862598419189453,0.000151511208406338
971,0.000481605529785156,0.000139187451454738
972,0.000745773315429688,0.000176406549526548
973,0.000718593597412109,0.000158140367441872
974,0.000694751739501953,0.000124248795035983
975,0.00070953369140625,0.00013166578337022
976,0.000535011291503906,0.000142174258383518
977,0.000947475433349609,0.000157760332511111
978,0.000739097595214844,0.000201128081941474
979,0.000422954559326172,0.000166685793169248
980,0.000659942626953125,0.000175672918290097
981,0.000530719757080078,0.000170774287019594
982,0.000452041625976563,0.000186369532544105
983,0.000347137451171875,0.000206571228436543
984,0.000736236572265625,0.000181549133824017
985,0.00060272216796875,0.00014156523497514
986,0.000426292419433594,0.000159554586889021
987,0.000416278839111328,0.000176117595115491
988,0.000627040863037109,0.000222204069201823
989,0.000209808349609375,0.00024680088972112
990,0.000403881072998047,0.000255100303608711
991,0.000390052795410156,0.000215863502127234
992,0.000544071197509766,0.000195705495275584
993,0.000577449798583984,0.000160764146936689
994,0.000440597534179688,0.00021630964940892
995,0.000504493713378906,0.000230931009899401
996,0.000348091125488281,0.000206628457091535
997,0.000197410583496094,0.000294813418419563
998,0.000136375427246094,0.000238097928909325
999,0.000389575958251953,0.00024944007604571
1000,0.000368595123291016,0.000202192450019018
1001,0.000231266021728516,0.000220836873955569
1002,0.000194072723388672,0.000231803681982717
1003,0.000209331512451172,0.000285108748490216
1004,0.000528812408447266,0.000260134664723318
1005,0.0003204345703125,0.000294282322783442
1006,0.000329017639160156,0.000310763230471458
1007,0.000299453735351562,0.000260672530503041
1008,0.00046539306640625,0.000204406914265267
1009,-0.0000128746032714844,0.000302229005703388
1010,0.000249862670898437,0.000341367451800493
1011,0.000284194946289062,0.000273363718654233
1012,0.000178813934326172,0.000252700300753444
1013,0.000478267669677734,0.000307106822740643
1014,0.000342369079589844,0.000345772375293721
1015,0.000109195709228516,0.000291225342183212
1016,-0.000301361083984375,0.000348048011513555
1017,-0.0000057220458984375,0.000352947121127846
1018,0.000241279602050781,0.000308377635404024
1019,-0.000147819519042969,0.000406386129102281
1020,-0.000208377838134766,0.000321018731024355
1021,0.000261783599853516,0.000278805834176992
1022,0.000100135803222656,0.000298754367421111
1023,-0.000144004821777344,0.000378396048987718
1024,-0.000371456146240234,0.000368073811586882
1025,-0.000460147857666016,0.000421355718774161
1026,0.000341892242431641,0.000423654720765244
1027,-0.000441551208496094,0.000408564584349398
1028,0.000243186950683594,0.000368291191645425
1029,0.0000171661376953125,0.000374209941399977
1030,-0.000369071960449219,0.000305271133785134
1031,0.000141620635986328,0.000605239921059144
1032,-0.000236034393310547,0.00061363291832269
1033,-0.000474929809570313,0.000515760613438586
1034,0.000584602355957031,0.000608501013134567
1035,-0.000145435333251953,0.000559474482494216
1036,-0.000445842742919922,0.000668867761056631
1037,-0.000334739685058594,0.000594138333731904
1038,-0.000586509704589844,0.00048559163333037
1039,-0.000807762145996094,0.000530201752525952
1040,-0.000686168670654297,0.000550480774156111
1041,-0.000441551208496094,0.000667888021610178
1042,-0.0011897087097168,0.000545795068354321
1043,0.0004425048828125,0.000572064700511002
1044,-0.000797271728515625,0.000595740430476763
1045,-0.000109672546386719,0.000648846252568266
1046,-0.000424861907958984,0.000724250189038092
1047,-0.0018768310546875,0.000640369402091775
1048,-0.000843524932861328,0.000794208610812543
1049,-0.000207901000976562,0.000564510754181004
1050,-0.000791072845458984,0.000526414401107901
1051,-0.00232076644897461,0.000541297342616022
1052,-0.000732898712158203,0.000824680732230936
1053,-0.00113630294799805,0.000780942230399186
1054,-0.00167036056518555,0.000757445582067512
1055,-0.00146627426147461,0.00077045553148481
1056,0.000286102294921875,0.000788305136296966
1057,-0.000861644744873047,0.000947658639175221
1058,-0.000566959381103516,0.0009969432331369
1059,-0.00189590454101562,0.00106596048176834
1060,-0.00161170959472656,0.0010145373664547
1061,-0.00297260284423828,0.00075394092119374
1062,-0.00203180313110352,0.000861699498922128
1063,-0.00171518325805664,0.000841138584540738
1064,-0.00301504135131836,0.00126302777285161
1065,-0.00104570388793945,0.00137114887588623
1066,-0.00337409973144531,0.00101923114371699
1067,-0.000692367553710938,0.00105011624880565
1068,-0.00290822982788086,0.0011914075788897
1069,-0.000877857208251953,0.00158313153705309
1070,-0.0030207633972168,0.00155561090726971
1071,-0.00154352188110352,0.00188252894454655
1072,0.0000743865966796875,0.00119121213801258
1073,-0.00316572189331055,0.00102770521419076
1074,-0.00203037261962891,0.00128201073066986
1075,-0.000697612762451172,0.00118041305776689
1076,-0.00252485275268555,0.00105351966203674
1077,-0.00212955474853516,0.00147399428467552
1078,-0.00377225875854492,0.00201034183972375
1079,-0.0002288818359375,0.00193663430293341
1080,-0.00206327438354492,0.00188645168846901
1081,-0.00293970108032227,0.00236943987271797
1082,-0.00188541412353516,0.00259152463160123
1083,-0.0010828971862793,0.00234856508280273
1084,-0.00372076034545898,0.00190502788500139
1085,-0.000876426696777344,0.00229080114311884
1086,0.000773429870605469,0.0022399777612157
1087,-0.00221776962280273,0.00186226003480298
1088,0.000627517700195313,0.00274064163368249
1089,-0.00284004211425781,0.00235267568771887
1090,-0.00258684158325195,0.00267194424087753
1091,-0.00126934051513672,0.00230210579923021
1092,-0.00222921371459961,0.00217880333978511
1093,-0.00168800354003906,0.0022295592035221
1094,0.00170564651489258,0.00246215585794559
1095,-0.000787734985351563,0.00204182896082561
1096,-0.00501203536987305,0.00341885419003378
1097,-0.00258684158325195,0.00295177715060184
1098,0.00280427932739258,0.00312570623523767
1099,-0.00837087631225586,0.00361681584865044
1100,-0.00127649307250977,0.00235747056482533
