Wavelength (nm),Absorbance (AU),Std.Dev.
190,0.584642887115479,0.200011825211934
191,0.686910629272461,0.79253567299444
192,1.43640756607056,1.6868126493664
193,1.24182271957397,0.813588513642646
194,0.704497337341309,1.04278585709147
195,1.67332315444946,2.20633631205104
196,1.42906475067139,1.06637047787987
197,1.14870834350586,0.240603280016072
198,1.16147518157959,0.229863811475778
199,1.42707920074463,0.344996187493088
200,1.38289833068848,0.199438833702646
201,1.43527030944824,0.592746891137461
202,2.88516998291016,1.24172062767255
203,2.87602043151855,0.653570609051253
204,3.27303791046143,0.464523589850229
205,2.92492246627808,0.236017196028783
206,3.05471420288086,0.0821793445558606
207,2.93808794021606,0.0550167526393906
208,2.94369983673096,0.072300258276176
209,2.89706039428711,0.0516863635675118
210,3.04751777648926,0.0493743857816325
211,2.94061374664307,0.0385858059633913
212,2.93606662750244,0.043458402804901
213,3.04451894760132,0.0483410767677341
214,3.02371788024902,0.0296211102664322
215,2.96956729888916,0.0368223635763728
216,2.9325852394104,0.0427036779083849
217,2.89970779418945,0.0408364879920627
218,2.91196298599243,0.0239562793901693
219,2.87167644500732,0.0123499326070885
220,2.76535129547119,0.0154988441190116
221,2.71878957748413,0.0133381019449301
222,2.60937261581421,0.0153459425095876
223,2.54268455505371,0.0171277307435421
224,2.47649049758911,0.0154374308410825
225,2.37059688568115,0.0106835934710459
226,2.28008031845093,0.00611418744765527
227,2.18283081054687,0.0063163277663036
228,2.08051347732544,0.00434229856708
229,1.98580646514893,0.00254830914179384
230,1.89963102340698,0.00198897598435046
231,1.82833862304688,0.00229790473419289
232,1.75682497024536,0.00146960438572199
233,1.68366622924805,0.000950158313528793
234,1.626220703125,0.00126134451905409
235,1.57865238189697,0.00123473683619042
236,1.5338339805603,0.0010243012681654
237,1.49897384643555,0.000866079108604634
238,1.47004318237305,0.000978973511868549
239,1.44661998748779,0.0012073983880964
240,1.42978858947754,0.000962876743425507
241,1.42100667953491,0.000722218006868827
242,1.41463994979858,0.00086325174708463
243,1.41583681106567,0.00131068024191225
244,1.42279052734375,0.000912279088733682
245,1.43734455108643,0.000811213110382966
246,1.45730686187744,0.000780196522680398
247,1.48443508148193,0.00164667716204269
248,1.51906299591064,0.00179276161410211
249,1.55529832839966,0.00170075615578302
250,1.60422086715698,0.00197905964729348
251,1.65678071975708,0.00220836379746951
252,1.70711040496826,0.00323162276425493
253,1.77390098571777,0.00228673204066901
254,1.83545541763306,0.00337422857475219
255,1.89117288589478,0.00357159982423958
256,1.94191837310791,0.00335492160497311
257,2.03269243240356,0.00490688113994358
258,2.0995512008667,0.00681519768174212
259,2.13240385055542,0.00809998844051714
260,2.16111707687378,0.00781702864045353
261,2.18914890289307,0.00697137986583245
262,2.22528743743896,0.00721145287487399
263,2.24441242218018,0.0131479417024045
264,2.24399042129517,0.0142493235778885
265,2.23661613464356,0.0129201493131495
266,2.21733283996582,0.00699977718577672
267,2.16347551345825,0.00755148205610698
268,2.10229969024658,0.00783440380357424
269,2.00674343109131,0.00737503227129842
270,1.93962287902832,0.00386893810760876
271,1.8669319152832,0.00342579354661324
272,1.79819440841675,0.00514101189893708
273,1.71936130523682,0.00401361265858129
274,1.6036319732666,0.00225339821324311
275,1.46828079223633,0.000992671895242376
276,1.32711315155029,0.000837097918947824
277,1.19200325012207,0.000706388825775649
278,1.07605075836182,0.00116347641239674
279,0.976580619812012,0.000759881567260055
280,0.893021583557129,0.000456075735239528
281,0.824226379394531,0.000479120509608477
282,0.767725467681885,0.000415836997703046
283,0.719791889190674,0.000348215211672849
284,0.679696083068848,0.000252203135315942
285,0.645634651184082,0.000280568325774401
286,0.616463184356689,0.000223249433721917
287,0.59142017364502,0.000231088491512016
288,0.570144653320313,0.000168951150381237
289,0.552489757537842,0.000234758899615398
290,0.536988258361816,0.000308713671238223
291,0.524133682250977,0.000271004642317373
292,0.513652324676514,0.00021983382467993
293,0.504753589630127,0.00026035134171679
294,0.497267723083496,0.000206439101760485
295,0.490967750549316,0.000179943964534851
296,0.485432147979736,0.000204371315708002
297,0.481350898742676,0.000175941926980306
298,0.478079795837402,0.000221769780387394
299,0.475544452667236,0.000206179005625856
300,0.473836421966553,0.000217588272191981
301,0.472618103027344,0.000242007894117877
302,0.471987724304199,0.000251957794449289
303,0.471849918365479,0.000173919449146908
304,0.47226619720459,0.000192457998598147
305,0.473536014556885,0.000310552440299543
306,0.474629878997803,0.000309525720877539
307,0.475773334503174,0.000264833142604775
308,0.477752685546875,0.000300369563065026
309,0.479738712310791,0.000243872256598276
310,0.481476306915283,0.000200026225581534
311,0.483940124511719,0.000203027384541477
312,0.486251831054688,0.000231434573857951
313,0.488951683044434,0.000218164334237246
314,0.491019248962402,0.00021230341125489
315,0.494070529937744,0.000262480556706021
316,0.496022701263428,0.000248453666502896
317,0.497601509094238,0.000263497297013357
318,0.500097274780273,0.000287238091774112
319,0.501625061035156,0.000204678149671783
320,0.502479076385498,0.000277923669434921
321,0.504634857177734,0.000283445098697814
322,0.505235195159912,0.000350724021739865
323,0.505071640014648,0.000276032295457848
324,0.506076335906982,0.000188031106566761
325,0.505075454711914,0.000156542087773767
326,0.504173278808594,0.000254907707756092
327,0.502706527709961,0.00028870353729956
328,0.501368522644043,0.000223420471783822
329,0.499300956726074,0.000250335420847634
330,0.496403694152832,0.000325402844423972
331,0.492964744567871,0.000334450197161923
332,0.488964557647705,0.000299496252844094
333,0.485958099365234,0.00023013803349956
334,0.481243133544922,0.000244207671019267
335,0.476644992828369,0.000288236919941831
336,0.471382617950439,0.000253246773701502
337,0.466112613677979,0.000237516604391296
338,0.459847927093506,0.000207208653007775
339,0.453212738037109,0.000174899813606049
340,0.446567535400391,0.000281319375389384
341,0.439661979675293,0.000317938483253994
342,0.432243347167969,0.000312927268786994
343,0.424737453460693,0.000195258848450771
344,0.416815280914307,0.000223086418414512
345,0.408463001251221,0.000193870518763086
346,0.400300979614258,0.000192934701788357
347,0.391666889190674,0.000260029756198414
348,0.382379055023193,0.000192254687017123
349,0.373993873596191,0.000166661237821352
350,0.365216255187988,0.000218555854959583
351,0.355481624603271,0.000205984821836733
352,0.346074104309082,0.000210003328756878
353,0.336862087249756,0.000199807856274533
354,0.327927112579346,0.000178640281280031
355,0.318502426147461,0.000175993612280613
356,0.309181213378906,0.000216591174144857
357,0.299929141998291,0.000208115248571147
358,0.290639877319336,0.000280892300300676
359,0.281086921691895,0.000323760842858943
360,0.272621154785156,0.000277288085008865
361,0.2633056640625,0.000308448410213219
362,0.253072738647461,0.000244237463342303
363,0.24456787109375,0.000224561446456202
364,0.236485958099365,0.000284872591257556
365,0.228338241577148,0.000284872591257556
366,0.221175193786621,0.000237290575006177
367,0.214993953704834,0.000230240761351106
368,0.208606719970703,0.000196257740280692
369,0.201310157775879,0.000188933448746335
370,0.194509983062744,0.000218222690352838
371,0.187966346740723,0.000153084780368863
372,0.181217193603516,0.000139998610075981
373,0.17462158203125,0.000107518056190041
374,0.16811990737915,0.000128321477452525
375,0.162007808685303,0.000149163931244027
376,0.155763626098633,0.000240325927734375
377,0.149631023406982,0.000210466220461025
378,0.143886566162109,0.000225418430896973
379,0.138043880462646,0.000169657561934945
380,0.132337093353271,0.000120604928445957
381,0.127039432525635,0.000133408777143764
382,0.122260093688965,0.00018365598413869
383,0.117288589477539,0.000230106415703292
384,0.112154006958008,0.000250792774209722
385,0.107410907745361,0.000189898564832114
386,0.102914810180664,0.000162846696356712
387,0.0983562469482422,0.000148111485735452
388,0.0942482948303223,0.000173992645371043
389,0.0897269248962402,0.000196035173192755
390,0.0858364105224609,0.000169901301759495
391,0.0826363563537598,0.000147054600485857
392,0.0787925720214844,0.000180539389392282
393,0.0751891136169434,0.000196475426254914
394,0.0711212158203125,0.000192991261530166
395,0.0680670738220215,0.000225962458292373
396,0.0653166770935059,0.00020695391877394
397,0.0624785423278809,0.00019032434153889
398,0.0590829849243164,0.000142544803947071
399,0.0560283660888672,0.000153046158231626
400,0.0534505844116211,0.000179792270941811
401,0.0508403778076172,0.000158200743371792
402,0.0486917495727539,0.000238456723022949
403,0.046478271484375,0.000176293088205365
404,0.0439801216125488,0.000148699815700973
405,0.0417332649230957,0.000183323888841343
406,0.0392556190490723,0.000180327683862432
407,0.0372228622436523,0.000191553267391415
408,0.0358443260192871,0.00019819454122042
409,0.0338196754455566,0.000166688521317945
410,0.0320591926574707,0.000163189810841894
411,0.0305094718933105,0.00020747622571011
412,0.0285863876342773,0.000191192078951136
413,0.0272574424743652,0.000202875018753005
414,0.0258975028991699,0.000150060585501976
415,0.0240492820739746,0.000122356823617991
416,0.0231475830078125,0.000159123639027513
417,0.0221648216247559,0.000180936926261663
418,0.0207996368408203,0.00019063470117857
419,0.0196018218994141,0.000182772373175269
420,0.0187830924987793,0.000171674621918767
421,0.0178079605102539,0.000158051198916349
422,0.0168204307556152,0.000129038866238272
423,0.0157933235168457,0.000124384140355028
424,0.0144200325012207,0.000180569612777343
425,0.014063835144043,0.000180246968731051
426,0.013124942779541,0.00013166578337022
427,0.0125746726989746,0.000126874531434323
428,0.0116372108459473,0.000182034419724389
429,0.0112380981445312,0.000183720351001725
430,0.0105504989624023,0.000118683609625374
431,0.00952386856079102,0.000114261964117332
432,0.00917482376098633,0.000112476981207985
433,0.00870800018310547,0.000104393583442634
434,0.00843381881713867,0.000129818861587415
435,0.00727653503417969,0.000139474664997702
436,0.00753402709960938,0.000135250386087282
437,0.00686931610107422,0.000139073053924558
438,0.0063018798828125,0.000110626220703125
439,0.00595855712890625,0.000139340923254615
440,0.00523805618286133,0.000156791714669246
441,0.00588178634643555,0.000166925699573844
442,0.00507831573486328,0.00016187480302005
443,0.00478553771972656,0.00013575378868387
444,0.00429821014404297,0.000116332631545844
445,0.00418853759765625,0.000102667369919548
446,0.00389432907104492,0.000145509575826726
447,0.0034937858581543,0.000117391071727212
448,0.00352716445922852,0.000120310465790455
449,0.0032811164855957,0.000121934263589989
450,0.00307178497314453,0.000117538183242429
451,0.00269412994384766,0.000104541585428261
452,0.0026097297668457,0.000122025600827967
453,0.00227975845336914,0.000100936413891421
454,0.00204372406005859,0.0000936860641689021
455,0.00229644775390625,0.000113176272391429
456,0.00205087661743164,0.000117841503104891
457,0.00185012817382812,0.000145921519858819
458,0.0017848014831543,0.0000898531272001052
459,0.00147438049316406,0.000110755630963678
460,0.00135564804077148,0.0000933919385707481
461,0.00156879425048828,0.000107357214979793
462,0.000989437103271484,0.000109150931493389
463,0.00112390518188477,0.000102439005603608
464,0.00118541717529297,0.000104975676011311
465,0.00118112564086914,0.0000800745755374273
466,0.00115346908569336,0.0000962289992990734
467,0.000688076019287109,0.000106350722194295
468,0.000723361968994141,0.000150248354376033
469,0.00054931640625,0.0000996304430139189
470,0.000347137451171875,0.0000720308260395444
471,0.000424385070800781,0.000114146489642034
472,0.000532627105712891,0.000102072114488531
473,0.000719070434570313,0.000120227281826036
474,0.000390052795410156,0.000137315855447054
475,0.000545024871826172,0.000114641411313581
476,0.000271797180175781,0.00012842774784544
477,0.000360012054443359,0.000112272622750259
478,0.000533103942871094,0.000114012951128762
479,0.000230789184570312,0.000121086597471733
480,0.000308036804199219,0.0000795989625554323
481,0.000164985656738281,0.0000974522635751111
482,0.000196933746337891,0.0000990766184134038
483,0.000303268432617187,0.000137352279190685
484,0.000166893005371094,0.000112588109522987
485,0.00113344192504883,0.000122750147552955
486,0.000949859619140625,0.0000744431231987072
487,-0.000322341918945312,0.000086294352332243
488,-0.000150680541992187,0.000106694378646398
489,0.000106334686279297,0.0000889272535948098
490,0.00014495849609375,0.000115670119554626
491,0.000108718872070312,0.000139894628176888
492,0.0000429153442382813,0.00007615523842475
493,0.000211238861083984,0.0000737835205932687
494,0.0000677108764648438,0.0000844351916769456
495,-0.0000948905944824219,0.000099042188515662
496,0.0000948905944824219,0.0000907144313857583
497,0.000101089477539062,0.0000869100310563986
498,-0.0000796318054199219,0.000113693418670334
499,0.0000658035278320313,0.0000834846409428788
500,0.000100135803222656,0.0000719455469189385
501,0.000250339508056641,0.000100731214826039
502,0.00006103515625,0.0000818050243912023
503,0.000169754028320312,0.0000896327030057175
504,-0.0000982284545898438,0.0000704945320609143
505,0.000140190124511719,0.0000978411287931152
506,0.000109195709228516,0.000102678442639883
507,0.000120162963867187,0.0000956958836740203
508,0.000130176544189453,0.000075302537087928
509,0.0000324249267578125,0.0000839030176179493
510,0.000167369842529297,0.0000848247602967499
511,0.000185012817382812,0.0000833428965846238
512,0.000156879425048828,0.0000854190918060671
513,0.0000619888305664063,0.000111946091918071
514,0.000201225280761719,0.000122764965291728
515,0.000240802764892578,0.0000872260163465089
516,0.000100612640380859,0.0000883114775536162
517,0.000279903411865234,0.0000765438754494519
518,0.000148773193359375,0.000108148517626456
519,0.000271797180175781,0.0000912592076676908
520,0.000261306762695312,0.0000849600182475313
521,0.000212669372558594,0.0000770472057797809
522,0.000212192535400391,0.0000931725653206061
523,0.000191688537597656,0.000109521097850288
524,0.000208854675292969,0.000103263597801629
525,0.000181198120117187,0.0000981752010542306
526,0.000323772430419922,0.0000895870302878447
527,0.000390052795410156,0.0000889885968444097
528,0.000273227691650391,0.000105094736587188
529,0.000461101531982422,0.0000834465026855469
530,0.000478267669677734,0.0000904659498038002
531,0.000339508056640625,0.0000853471913216796
532,0.000496387481689453,0.0000759609225965753
533,0.000486850738525391,0.0000857485271971667
534,0.000303268432617187,0.0000933748946909509
535,0.000409126281738281,0.000086868161835105
536,0.000405311584472656,0.0000831681103588302
537,0.000459194183349609,0.0000860146035580432
538,0.000490188598632813,0.0000716748269824517
539,0.000498294830322266,0.0000881800711771523
540,0.000513076782226563,0.0000785233680547999
541,0.000504493713378906,0.0000669340787710823
542,0.000540733337402344,0.000065979514927257
543,0.000402927398681641,0.000102574311879048
544,0.000659465789794922,0.0000936787829628833
545,0.000515460968017578,0.000102069886885452
546,0.000435829162597656,0.000078571131224892
547,0.000524997711181641,0.0000965639395940687
548,0.000537395477294922,0.0000813367350014511
549,0.000417232513427734,0.0000793256986599642
550,0.000659465789794922,0.0000980941075944808
551,0.000555992126464844,0.0000691726219398063
552,0.000647068023681641,0.00007375423927683
553,0.000538349151611328,0.000077643967123672
554,0.000545501708984375,0.0000608028147035089
555,0.000635147094726563,0.0000806475293239269
556,0.000627994537353516,0.0000900856327275323
557,0.000570774078369141,0.0000884606828712863
558,0.000652790069580078,0.0000844001770019531
559,0.000696182250976563,0.0000833401683689469
560,0.000766277313232422,0.0000920480996094792
561,0.000664710998535156,0.0000867398116231327
562,0.00051116943359375,0.0000795032125366416
563,0.000635147094726563,0.0000625038758115496
564,0.000711441040039063,0.0000674973061303638
565,0.000521659851074219,0.0000695397967305532
566,0.000679492950439453,0.0000906442228485447
567,0.00083160400390625,0.0000708195490872881
568,0.000765800476074219,0.0000462064801993395
569,0.000872611999511719,0.0000687572066027677
570,0.000842094421386719,0.0000823300469976678
571,0.000775814056396484,0.0000714699210775569
572,0.000874996185302734,0.000061016526955469
573,0.000830650329589844,0.000064325314967872
574,0.00095367431640625,0.0000701501850148513
575,0.000761985778808594,0.0000522936247983992
576,0.000850677490234375,0.0000833115167103571
577,0.000870704650878906,0.0000749378077881716
578,0.00105094909667969,0.0000596970795103035
579,0.000564098358154297,0.0000659743455368054
580,0.00103425979614258,0.0000650144339857672
581,0.000842571258544922,0.000082241624031933
582,0.00127077102661133,0.0000745972072721068
583,0.000154018402099609,0.0000848328014476343
584,0.000865936279296875,0.0000806968528797385
585,0.00114154815673828,0.0000548860075606468
586,0.000724315643310547,0.0000618437757145423
587,0.000918388366699219,0.0000715827713195618
588,0.0008544921875,0.0000566854900425475
589,0.000688076019287109,0.0000680191116372368
590,0.0009307861328125,0.0000505436141410805
591,0.000729084014892578,0.0000542935172491503
592,0.000893592834472656,0.0000587710260558563
593,0.00116539001464844,0.000052682414231865
594,0.000645637512207031,0.000073077530850017
595,0.000954627990722656,0.0000734917293746619
596,0.000712394714355469,0.0000830559446353614
597,0.0008392333984375,0.0000931774458929004
598,0.000806331634521484,0.0000736586087529924
599,0.00101423263549805,0.0000883912565561795
600,0.000706195831298828,0.0000741109877414052
601,0.000819206237792969,0.0000577406287030555
602,0.000761985778808594,0.0000479511865642518
603,0.000881671905517578,0.0000744370142931332
604,0.000826835632324219,0.000067129120905978
605,0.000811576843261719,0.0000615360153961206
606,0.000899314880371094,0.0000740756971581876
607,0.000842094421386719,0.0000946494733871422
608,0.000891685485839844,0.0000607092545836059
609,0.000741958618164063,0.0000651611541888794
610,0.00103998184204102,0.0000589439008516599
611,0.000764846801757813,0.0000677729711435815
612,0.000815391540527344,0.0000560288733601434
613,0.000776767730712891,0.0000690969784936866
614,0.000833988189697266,0.0000558713986773209
615,0.0008087158203125,0.0000693056194961006
616,0.000753402709960938,0.0000745834899271861
617,0.000660419464111328,0.0000674467577025964
618,0.000720500946044922,0.0000486911215094352
619,0.000574588775634766,0.0000650459018897245
620,0.000796794891357422,0.0000665491130690956
621,0.000514030456542969,0.0000698920313284884
622,0.000779151916503906,0.0000636715998947162
623,0.000762939453125,0.0000838081154072616
624,0.000817298889160156,0.0000773917137588103
625,0.000765323638916016,0.0000883217756677616
626,0.000676631927490234,0.0000689915974719286
627,0.000828742980957031,0.0000871686496738474
628,0.000811576843261719,0.0000875226777794332
629,0.000772476196289063,0.0000602005731940293
630,0.00091552734375,0.0000474315172820042
631,0.000736713409423828,0.0000645511423305016
632,0.00077056884765625,0.00006787186946357
633,0.000742912292480469,0.0000609801834618127
634,0.000722885131835938,0.0000875876007746225
635,0.0006561279296875,0.0000867817427690337
636,0.000718116760253906,0.0000616061798076981
637,0.000681877136230469,0.0000435725853025843
638,0.0007171630859375,0.0000537939101327094
639,0.000736713409423828,0.0000694841897438661
640,0.000674724578857422,0.0000784523933387175
641,0.00074005126953125,0.000118727664774384
642,0.000698566436767578,0.0000749635937544318
643,0.000668525695800781,0.0000767648587992074
644,0.000701427459716797,0.0000923489676094148
645,0.000680446624755859,0.0000890396839356172
646,0.0006866455078125,0.0000909022228163753
647,0.000696659088134766,0.0000890652164925426
648,0.000737190246582031,0.0000866716302448125
649,0.000533103942871094,0.0000750833064598217
650,0.000648021697998047,0.0000673235979897494
651,0.000643730163574219,0.00008082495325801
652,0.000697612762451172,0.000071269211695699
653,0.000742435455322266,0.000064325314967872
654,0.0007476806640625,0.0000675444505327303
655,0.000627040863037109,0.0000795089321922272
656,0.00387716293334961,0.0000583429310904321
657,-0.00141668319702148,0.0000556338400343801
658,0.00011444091796875,0.0000618069989655034
659,0.000613212585449219,0.0000788599860325111
660,0.000697135925292969,0.0000635786851234734
661,0.000704765319824219,0.0000557593726472129
662,0.0006256103515625,0.0000634157566978779
663,0.000644207000732422,0.0000805671377582286
664,0.000675201416015625,0.0000632452187789507
665,0.000664710998535156,0.0000895616464916001
666,0.000621795654296875,0.0000934552171958604
667,0.000670433044433594,0.0000944282058295179
668,0.000686168670654297,0.0000495750144514946
669,0.000636577606201172,0.000062365487989207
670,0.000703811645507813,0.0000526154747708226
671,0.000699520111083984,0.0000391631092701068
672,0.000685214996337891,0.0000606277398326483
673,0.000660896301269531,0.0000787806565401588
674,0.000654697418212891,0.0000728609674259722
675,0.000583171844482422,0.0000668814048670832
676,0.000677585601806641,0.0000488752272036315
677,0.000639438629150391,0.0000619135913535748
678,0.000619888305664063,0.0000552164252194788
679,0.000730514526367188,0.0000576381537863685
680,0.000689506530761719,0.0000568657050616067
681,0.000731945037841797,0.0000529589868350242
682,0.000754833221435547,0.0000688877055807181
683,0.000701904296875,0.0000615323203160802
684,0.000722408294677734,0.0000655091653916882
685,0.000838756561279297,0.0000537537409631422
686,0.000720024108886719,0.0000675848338459087
687,0.000824928283691406,0.0000619301151086968
688,0.000786781311035156,0.0000562587021017175
689,0.000833511352539063,0.0000520790446103286
690,0.000799655914306641,0.0000656617059918075
691,0.000812053680419922,0.000057903818683105
692,0.000872135162353516,0.0000616320097186084
693,0.000853538513183594,0.0000616043343996426
694,0.000824928283691406,0.0000579106900835239
695,0.000813961029052734,0.0000733244701960448
696,0.000783443450927734,0.0000635715322084343
697,0.000848293304443359,0.0000699814375057542
698,0.000826358795166016,0.0000792812580876004
699,0.000708580017089844,0.0000817341174675398
700,0.000755786895751953,0.0000704316085088577
701,0.000734806060791016,0.0000557940228921816
702,0.000704765319824219,0.0000686413672834003
703,0.000616073608398438,0.0000586063711659873
704,0.000579833984375,0.0000564271855054751
705,0.000575065612792969,0.000055139161230374
706,0.000500679016113281,0.000059797927278945
707,0.000601768493652344,0.0000576657611009971
708,0.000566005706787109,0.0000558978447521986
709,0.000512123107910156,0.0000610314308460078
710,0.000377178192138672,0.0000489844301482872
711,0.000515937805175781,0.0000622925288065447
712,0.000499248504638672,0.0000655473338220199
713,0.000501155853271484,0.0000613732214193828
714,0.000506401062011719,0.0000584461154656269
715,0.000527858734130859,0.0000686264594704963
716,0.000592231750488281,0.0000677612278659458
717,0.000591278076171875,0.0000565167708970225
718,0.000558376312255859,0.0000615119934082031
719,0.000634193420410156,0.0000700772191387681
720,0.000617504119873047,0.0000478134773860255
721,0.000705718994140625,0.0000583731265240459
722,0.000762939453125,0.0000629190198838325
723,0.000694751739501953,0.0000800291302582064
724,0.000676155090332031,0.0000549056816355474
725,0.000800609588623047,0.0000611393753998742
726,0.000803947448730469,0.0000531090429576103
727,0.00083160400390625,0.0000644912340648526
728,0.000816822052001953,0.0000582044163038032
729,0.000832557678222656,0.0000588589755762943
730,0.000848293304443359,0.0000575710523347975
731,0.000819683074951172,0.0000561595962598831
732,0.000794887542724609,0.0000539500733952125
733,0.000841617584228516,0.0000726374981580464
734,0.000833988189697266,0.0000754955357775246
735,0.000810623168945313,0.0000680274681014669
736,0.000770092010498047,0.0000769881612421947
737,0.000788211822509766,0.0000680658946230144
738,0.000744819641113281,0.0000632847526601557
739,0.000721454620361328,0.0000643677179487247
740,0.000683784484863281,0.0000593686199088648
741,0.000671863555908203,0.0000625620527882501
742,0.000648975372314453,0.0000653301711443106
743,0.000652790069580078,0.0000634927969584622
744,0.000596046447753906,0.0000596761274851981
745,0.000551700592041016,0.000071551000526057
746,0.000536918640136719,0.0000699196781722065
747,0.000590324401855469,0.000081023038435972
748,0.000627040863037109,0.0000622340998769968
749,0.000552177429199219,0.0000805247941710508
750,0.000629901885986328,0.0000637197906649872
751,0.000657558441162109,0.0000562667846679688
752,0.000621318817138672,0.0000507344428653268
753,0.000668525695800781,0.0000537685436222769
754,0.000665664672851563,0.0000655906800777473
755,0.000673294067382813,0.0000680942828974198
756,0.000691890716552734,0.0000437405508883585
757,0.000712871551513672,0.0000693236612143946
758,0.000771522521972656,0.0000600209006407149
759,0.000805854797363281,0.0000462777770533525
760,0.000786781311035156,0.000055243184844821
761,0.000792026519775391,0.0000593322250556124
762,0.000781536102294922,0.0000625311530086985
763,0.000851631164550781,0.0000562789063408683
764,0.000806808471679688,0.000074855840504419
765,0.000812053680419922,0.0000599735289259894
766,0.000762462615966797,0.0000491766856550359
767,0.000733852386474609,0.0000540111493669285
768,0.000832080841064453,0.0000398865090861095
769,0.000889778137207031,0.0000501903671060052
770,0.000751972198486328,0.0000508016230362614
771,0.000851154327392578,0.0000458718833207161
772,0.000775337219238281,0.0000612768216887065
773,0.000743389129638672,0.0000638089367264646
774,0.000685214996337891,0.0000533013515275475
775,0.00069427490234375,0.0000631408744413762
776,0.000754833221435547,0.0000694219880491386
777,0.000699043273925781,0.0000725262890799173
778,0.000644683837890625,0.0000753251797011492
779,0.000631332397460938,0.0000512095136251509
780,0.000669479370117188,0.0000410336314512376
781,0.000590801239013672,0.0000495451935114309
782,0.000563144683837891,0.0000522490385960275
783,0.000577449798583984,0.0000624055791816059
784,0.000621318817138672,0.0000423949532487051
785,0.000521659851074219,0.0000500281494005263
786,0.000596523284912109,0.0000606717901383189
787,0.000564098358154297,0.0000684057763688251
788,0.000552654266357422,0.0000679003388574933
789,0.000555038452148438,0.0000614139603693845
790,0.000572681427001953,0.0000604690810384972
791,0.000578880310058594,0.0000681209904663821
792,0.000555515289306641,0.0000610249108417782
793,0.000579357147216797,0.0000573276469502846
794,0.000580310821533203,0.0000598938600982427
795,0.000640392303466797,0.0000637090847551363
796,0.000568389892578125,0.0000538836538160911
797,0.000547409057617188,0.0000493774029468721
798,0.000626564025878906,0.0000642298059100446
799,0.000649929046630859,0.0000554219359239879
800,0.000720500946044922,0.0000670359106856917
801,0.000665664672851563,0.0000590979977803459
802,0.000642776489257813,0.0000569685716552467
803,0.000644683837890625,0.0000534621434957405
804,0.000666618347167969,0.0000622614952649843
805,0.000686168670654297,0.0000645000475936632
806,0.000644207000732422,0.0000535450124708309
807,0.000689029693603516,0.0000489670204769149
808,0.000706672668457031,0.0000607569882467924
809,0.000608444213867188,0.0000702182180917922
810,0.000575542449951172,0.0000779770916917457
811,0.000636577606201172,0.0000578596259095099
812,0.000733375549316406,0.0000519446186479873
813,0.000601768493652344,0.0000682327148688634
814,0.0006256103515625,0.0000559933532723905
815,0.000565528869628906,0.0000748922814836993
816,0.000543117523193359,0.0000573762124918057
817,0.000517368316650391,0.0000675158310715784
818,0.000490665435791016,0.0000585073558093156
819,0.000493049621582031,0.0000689784135242691
820,0.000582695007324219,0.0000729701084796344
821,0.000543117523193359,0.0000670494765890352
822,0.000511646270751953,0.0000589197868009319
823,0.000503063201904297,0.0000563001129884868
824,0.000483036041259766,0.0000440526312484054
825,0.000495433807373047,0.0000433095732554472
826,0.000517845153808594,0.0000528181910978664
827,0.000494956970214844,0.0000584198499519034
828,0.00051116943359375,0.0000662185875032285
829,0.000433444976806641,0.0000691413879394531
830,0.000499725341796875,0.0000581878114472883
831,0.000488758087158203,0.0000622322730890056
832,0.000509738922119141,0.0000712037794996389
833,0.000520706176757813,0.0000761925500388102
834,0.000650405883789063,0.0000950880727414094
835,0.000617504119873047,0.0000668422974056062
836,0.000608921051025391,0.00006386770496465
837,0.000519752502441406,0.0000937976385502344
838,0.000668525695800781,0.0000915229272003943
839,0.000653266906738281,0.0000602968081272739
840,0.000700950622558594,0.0000585374664276413
841,0.000723838806152344,0.0000712835668215708
842,0.000699520111083984,0.0000677310215170467
843,0.000775337219238281,0.0000720402952658564
844,0.000694751739501953,0.0000774798023942512
845,0.000752925872802734,0.0000759758876123032
846,0.000796318054199219,0.0000629280536129899
847,0.000782012939453125,0.0000641749124136782
848,0.000839710235595703,0.0000621884140786203
849,0.000814437866210938,0.0000521074154540921
850,0.000874042510986328,0.0000644242118426043
851,0.000826835632324219,0.0000813521085843886
852,0.000855445861816406,0.0000693892279189348
853,0.000887393951416016,0.0000555735245737161
854,0.000940799713134766,0.0000517681352340574
855,0.000893592834472656,0.0000679538959484782
856,0.000786781311035156,0.0000579146162320086
857,0.000803947448730469,0.0000651698771182218
858,0.000878334045410156,0.0000635661669939416
859,0.000805854797363281,0.0000888556329451926
860,0.000809192657470703,0.0000701599080648666
861,0.000740528106689453,0.0000712500670288881
862,0.000704765319824219,0.000078265233765962
863,0.000689506530761719,0.0000697210284440846
864,0.00069427490234375,0.0000739681874334534
865,0.000638484954833984,0.000068465580352011
866,0.000773429870605469,0.0000750757353647787
867,0.000608921051025391,0.0000480139739588271
868,0.000633716583251953,0.0000679036874132274
869,0.000685691833496094,0.000083017609435347
870,0.000561237335205078,0.0000922578244190808
871,0.000545024871826172,0.0000739697243868459
872,0.000587940216064453,0.000084305834440328
873,0.000557422637939453,0.0000640809533208173
874,0.000523567199707031,0.0000769763468998798
875,0.00054931640625,0.0000822899921135635
876,0.000593662261962891,0.0000628032733853399
877,0.000516414642333984,0.0000533993751249354
878,0.000571250915527344,0.0000482607733506494
879,0.000570774078369141,0.0000627797363018752
880,0.000624656677246094,0.0000787474586914604
881,0.000551700592041016,0.0000593619172704118
882,0.000555038452148438,0.0000670952412627047
883,0.000665664672851563,0.0000757841122401035
884,0.000645637512207031,0.0000810637193446295
885,0.000689506530761719,0.0000863615151667043
886,0.000711917877197266,0.0000876420989241088
887,0.000655174255371094,0.0000751060151657052
888,0.000810623168945313,0.0000687572066027677
889,0.000667095184326172,0.0000688480864800545
890,0.00081634521484375,0.00005733756162616
891,0.000831127166748047,0.000077588307308737
892,0.000795364379882813,0.0000833565363236125
893,0.000757217407226563,0.0000791018089206707
894,0.000790119171142578,0.0000791032461293324
895,0.000955104827880859,0.0000608159016343368
896,0.000959396362304688,0.0000657136275365914
897,0.000936985015869141,0.0000690640641972953
898,0.000988006591796875,0.0000746276812336182
899,0.000913619995117188,0.0000900780604912605
900,0.00108051300048828,0.0000760984897344466
901,0.000928878784179688,0.000058296146013371
902,0.000947952270507813,0.0000658449788772959
903,0.000910758972167969,0.0000915378320009491
904,0.00102901458740234,0.0000760805603012909
905,0.000966072082519531,0.000075240612512031
906,0.00101900100708008,0.0000748300174070572
907,0.00101947784423828,0.0000791262379176771
908,0.000917911529541016,0.00010352089678413
909,0.00103425979614258,0.0000863983666790137
910,0.00115299224853516,0.0000738743728094422
911,0.000844955444335938,0.0000931164203529765
912,0.000914573669433594,0.000091129556796292
913,0.000916957855224609,0.000099310425162848
914,0.000915050506591797,0.0000717334904278036
915,0.0008697509765625,0.0000606802216552288
916,0.000823020935058594,0.0000938339928163761
917,0.000998497009277344,0.0000929551204302039
918,0.000679969787597656,0.000136088355902341
919,0.000802516937255859,0.0000896529945228728
920,0.000894546508789063,0.0000935622066037587
921,0.000729084014892578,0.000108867259569413
922,0.00060272216796875,0.0000867135943604443
923,0.000556468963623047,0.0000745087623009667
924,0.000661849975585938,0.0000719376455903859
925,0.000619411468505859,0.0000980662886854955
926,0.000620365142822266,0.0000903980635601768
927,0.000642299652099609,0.000123944644933319
928,0.000517368316650391,0.0000980013471883021
929,0.000522136688232422,0.000101087228282161
930,0.000532627105712891,0.0000806630342628117
931,0.000579833984375,0.00011371141620394
932,0.000399589538574219,0.000103411018288411
933,0.000459194183349609,0.0000904106389325072
934,0.000411033630371094,0.0000863193798881498
935,0.000493049621582031,0.000101533848762844
936,0.000400543212890625,0.0000981335042160558
937,0.000432491302490234,0.0000888812183737355
938,0.000583648681640625,0.0000715287525742174
939,0.000450611114501953,0.000111667484563134
940,0.000491619110107422,0.000114401174637818
941,0.000499248504638672,0.0000864536144945365
942,0.000490188598632813,0.0000822277993543266
943,0.00043487548828125,0.0000834505897610994
944,0.000684738159179688,0.000119428433216525
945,0.000499248504638672,0.000147029859438281
946,0.000612258911132813,0.0000804032856306381
947,0.000603675842285156,0.00014678531767517
948,0.000720024108886719,0.000116822184312115
949,0.000539302825927734,0.000139468143985706
950,0.000720024108886719,0.000106826423559416
951,0.000802993774414063,0.000095593660961716
952,0.000677585601806641,0.000123536719625178
953,0.000708580017089844,0.000120783896955632
954,0.00084686279296875,0.0000932311153255386
955,0.000733852386474609,0.000114746480545447
956,0.000727653503417969,0.000107784185171557
957,0.000872135162353516,0.000112745521859315
958,0.000727176666259766,0.000112503257807154
959,0.000784397125244141,0.000153680702808256
960,0.000921726226806641,0.000137923860090568
961,0.000949859619140625,0.000122237835613313
962,0.00101900100708008,0.000124274412212676
963,0.000744819641113281,0.000144798416289583
964,0.00101089477539062,0.000122107559720377
965,0.000774383544921875,0.000165662315044787
966,0.000799655914306641,0.000153698456022987
967,0.000826835632324219,0.000154695263641293
968,0.0011134147644043,0.000107200374552759
969,0.000834465026855469,0.000116369761373168
970,0.000841140747070313,0.00016791981490898
971,0.000804424285888672,0.000162071331462119
972,0.000847816467285156,0.000146024324285601
973,0.000948905944824219,0.000122312216681176
974,0.000755786895751953,0.0000920752673771646
975,0.000779628753662109,0.000097540884121719
976,0.000932693481445313,0.000140963258490767
977,0.00102424621582031,0.000149489779975966
978,0.000694751739501953,0.000218331024614741
979,0.000565528869628906,0.00017478537419519
980,0.000815868377685547,0.000159106491159687
981,0.000656604766845703,0.000160265529271797
982,0.000865459442138672,0.000179766976231442
983,0.000406742095947266,0.000175045355558866
984,0.000497817993164063,0.000160242827967916
985,0.000639438629150391,0.000140400812555435
986,0.000714302062988281,0.000207199874282031
987,0.000540256500244141,0.000162874618837045
988,0.000701427459716797,0.000189222058490538
989,0.000284671783447266,0.000215150278506524
990,0.000523567199707031,0.000218788768321669
991,0.000284194946289062,0.000185724247365389
992,0.000863075256347656,0.000213495284430481
993,0.000670433044433594,0.00017154212624269
994,0.000484466552734375,0.000191467784337374
995,0.00034332275390625,0.000222244996037896
996,0.000293731689453125,0.000190443770486989
997,0.000356197357177734,0.000280555359011793
998,0.000174522399902344,0.000276341841094797
999,0.000505924224853516,0.000307562554518587
1000,0.000490665435791016,0.000244899405090568
1001,0.000395774841308594,0.000306869811844647
1002,0.0002288818359375,0.000239286749413369
1003,0.000380992889404297,0.000261870006899757
1004,0.000735759735107422,0.000282706130837302
1005,0.000532150268554688,0.000265642381635834
1006,0.000499248504638672,0.0003344175630986
1007,0.000264644622802734,0.000259735786904132
1008,0.000527381896972656,0.000188074633965755
1009,0.000563621520996094,0.000296535977153218
1010,-0.0000519752502441406,0.000333409778545103
1011,0.000205039978027344,0.000249782578539062
1012,0.000402450561523438,0.000273961933065726
1013,0.000317573547363281,0.000293018664637889
1014,0.000559329986572266,0.000290675175745548
1015,0.000316143035888672,0.000252296879068457
1016,-0.0000920295715332031,0.000290167850581919
1017,-0.000154495239257812,0.000327681162856994
1018,0.000372886657714844,0.000423895092257358
1019,0.000254631042480469,0.000446824660166819
1020,0.00000715255737304688,0.000298589930549234
1021,0.0000386238098144531,0.000274393165715858
1022,0,0.000259700768394461
1023,-0.000241756439208984,0.000306774956214903
1024,0.0000424385070800781,0.000363008083037384
1025,-0.000621795654296875,0.00041511023135633
1026,0.000546455383300781,0.000312886576412025
1027,-0.000163555145263672,0.000387834851139005
1028,0.000311851501464844,0.000331132422522688
1029,-0.0000786781311035156,0.000378049779017797
1030,-0.00034332275390625,0.000346980216499289
1031,0.000396728515625,0.000651185695293294
1032,-0.000222206115722656,0.000543577628965716
1033,-0.000387191772460937,0.000613680345220648
1034,0.000091552734375,0.000486063390608828
1035,0.00014495849609375,0.000444432696088212
1036,-0.000333309173583984,0.000422235466795882
1037,-0.000211238861083984,0.000525321349643006
1038,-0.000778675079345703,0.000435494100041901
1039,-0.000482559204101563,0.000511140964910951
1040,-0.000612735748291016,0.000638412125289064
1041,-0.000257492065429687,0.000700783871908397
1042,-0.00112485885620117,0.000523781689065588
1043,0.00069427490234375,0.000673928650669014
1044,-0.0009613037109375,0.000547179728995554
1045,-0.000442028045654297,0.00068370400970071
1046,0.0000653266906738281,0.000749255487587469
1047,-0.00190877914428711,0.000715436276856699
1048,-0.000581741333007813,0.0007895778316377
1049,-0.000528335571289063,0.000794611604344436
1050,-0.00163078308105469,0.000589577475027667
1051,-0.0012364387512207,0.000564278705173157
1052,-0.00223827362060547,0.000804657017723051
1053,-0.000725269317626953,0.000743053677465293
1054,-0.00131320953369141,0.000833561544412925
1055,-0.000759124755859375,0.000872390489656774
1056,-0.000286102294921875,0.000897629960615549
1057,-0.000179290771484375,0.0010086394288573
1058,-0.000192642211914062,0.000788858734391577
1059,-0.00370168685913086,0.000876135565021961
1060,-0.000696659088134766,0.000846708128956325
1061,-0.00239276885986328,0.00095910623459864
1062,-0.00328493118286133,0.00102552231442545
1063,0.000390529632568359,0.00078248730670137
1064,-0.00291013717651367,0.00126443260884486
1065,-0.000926017761230469,0.00137817784892493
1066,-0.00273275375366211,0.00125611904864999
1067,-0.000358104705810547,0.00122755037604485
1068,-0.00370550155639648,0.000889127294990013
1069,-0.000911235809326172,0.00126383401723741
1070,-0.00357961654663086,0.00140194146753855
1071,-0.00227737426757812,0.00188666766553634
1072,-0.000810146331787109,0.000876135565021961
1073,-0.00315046310424805,0.00133810532371677
1074,-0.00108766555786133,0.00182936908702396
1075,-0.00000810623168945313,0.00135137232230763
1076,-0.00519227981567383,0.00178132883742356
1077,0.000157833099365234,0.00131464895232251
1078,-0.00380373001098633,0.00139915690751314
1079,-0.000111579895019531,0.00135547955231114
1080,-0.00265073776245117,0.00243175506322511
1081,-0.00243806838989258,0.00231416024395085
1082,-0.00255680084228516,0.00252047299372476
1083,0.000405788421630859,0.0015942696514227
1084,-0.00250434875488281,0.00239907763757734
1085,-0.00060272216796875,0.00186578867200732
1086,-0.00179100036621094,0.001518690342379
1087,0.000341415405273437,0.00177792722954759
1088,-0.00200986862182617,0.0024873230315282
1089,-0.00203466415405273,0.00268151240309689
1090,-0.00241374969482422,0.00259569897446828
1091,-0.000339508056640625,0.00216744640003026
1092,-0.00222921371459961,0.00228153340982979
1093,-0.00210142135620117,0.00235381350076583
1094,0.00461101531982422,0.00264126950078952
1095,-0.000114917755126953,0.00179389763957199
1096,-0.00495147705078125,0.00285677785649417
1097,-0.00120782852172852,0.00409652309550383
1098,-0.0000753402709960938,0.00292125123041508
1099,-0.00549221038818359,0.00336773608135603
1100,-0.00358867645263672,0.00230952748748884
