Wavelength (nm),Absorbance (AU),Std.Dev.
200,1.2852611541748,0.325017840556003
201,2.30074310302734,0.644992732517197
202,2.4951057434082,0.544147775661918
203,2.45373296737671,0.583275201716565
204,3.56692409515381,1.09218638233133
205,3.44275236129761,0.624487094229637
206,3.54385566711426,0.625866099116606
207,3.99999952316284,0.920035903893498
208,3.48576211929321,0.478726834765108
209,3.84127521514893,0.364225084404376
210,3.87250852584839,0.609988173073104
211,3.77984428405762,1.1728121252997
212,3.99999952316284,0.918126648654068
213,3.9716362953186,0.470618022649141
214,3.79648065567017,0.503739676925865
215,3.97951316833496,0.373501645249263
216,3.79506158828735,0.420996988534917
217,3.93839836120605,0.326779467770912
218,3.59752655029297,0.484296238556204
219,3.8217887878418,0.268460565892745
220,3.43113851547241,0.129897496820284
221,3.54806852340698,0.184624558000804
222,3.61981201171875,0.17464913207897
223,3.56649732589722,0.219949973227223
224,3.51092576980591,0.275743623495517
225,3.69267416000366,0.67641317997143
226,3.99999952316284,1.06439399205017
227,3.93658208847046,0.569870869247751
228,3.99191236495972,0.512314776933149
229,3.84483003616333,0.477713773319077
230,3.88586807250977,0.717219838595531
231,3.89505338668823,0.400747744700844
232,3.82156324386597,0.405770826180131
233,3.99999952316284,0.750711739107878
234,3.87099647521973,0.35757659731758
235,3.57795906066895,0.109786214288955
236,3.28646945953369,0.0806300056737032
237,3.1016526222229,0.0484383859861007
238,2.98563766479492,0.0310428428853758
239,2.81308889389038,0.0255515063459523
240,2.65099859237671,0.0223618686013298
241,2.52599239349365,0.0111365328813053
242,2.4444375038147,0.00643711146321018
243,2.38345193862915,0.00672730920880441
244,2.33802032470703,0.00663951976778811
245,2.28812217712402,0.00567610545587799
246,2.25863170623779,0.00533053953662462
247,2.24841833114624,0.00737982936919032
248,2.22814416885376,0.00513076640416236
249,2.23578357696533,0.00694890011790811
250,2.2737717628479,0.0117479596091158
251,2.29560232162476,0.00864784382037644
252,2.31377935409546,0.00801770599300441
253,2.33473110198975,0.0153170275320159
254,2.38418054580689,0.0108741971958291
255,2.39365196228027,0.0083328078024776
256,2.40145015716553,0.0118342115698671
257,2.48780059814453,0.0183499738282477
258,2.58641576766968,0.0227765016146601
259,2.51653242111206,0.0215138320120359
260,2.53207921981812,0.0235529282452217
261,2.62611198425293,0.03107258982438
262,2.61541318893433,0.0330186092618491
263,2.60133981704712,0.0292087501100707
264,2.76638221740723,0.0329607927744623
265,2.83165836334229,0.0419531352293546
266,2.70687294006348,0.0368951335189395
267,2.76404619216919,0.0574337901514402
268,2.92121648788452,0.0731803124055869
269,2.86124086380005,0.0728046828891242
270,2.80954599380493,0.0849918002493131
271,3.12899112701416,0.0898835467226096
272,2.88742351531982,0.0565194774577073
273,2.97351169586182,0.0724468536262397
274,2.86393880844116,0.063650977326926
275,2.80721282958984,0.0335566826294954
276,2.77678537368774,0.0293370289605859
277,2.70431232452393,0.0296045046703596
278,2.70386219024658,0.0492208329017351
279,2.80670166015625,0.0477705288841416
280,2.72114706039429,0.021632636623694
281,2.58407115936279,0.0152186973304542
282,2.45027256011963,0.0113476158049449
283,2.32336664199829,0.00894222322783797
284,2.16471576690674,0.00638102052670172
285,1.9727840423584,0.00457376952534918
286,1.80990123748779,0.00224065329069635
287,1.65346050262451,0.00124258456991492
288,1.50413513183594,0.00143886416432206
289,1.38558149337769,0.00122444057518043
290,1.28781318664551,0.000932878737198598
291,1.19701528549194,0.000856618279810574
292,1.12162351608276,0.00091668691317007
293,1.05800914764404,0.000560202288298575
294,1.00423526763916,0.000558133361566614
295,0.956823348999023,0.00055502206574991
296,0.915376663208008,0.000551589923398438
297,0.879189968109131,0.000586942962404659
298,0.846358776092529,0.000562871475873492
299,0.816670894622803,0.000439899271091488
300,0.789435863494873,0.000381173972875417
301,0.762762546539307,0.000502469630139141
302,0.74046802520752,0.000349185477502267
303,0.717284679412842,0.000356220017392845
304,0.695040702819824,0.000378972462517221
305,0.673081398010254,0.000340679376955293
306,0.652003765106201,0.000382117674808995
307,0.632781982421875,0.000286635855013568
308,0.611369132995606,0.000294634435011969
309,0.591079235076904,0.000422166533206297
310,0.570545196533203,0.000259630717205423
311,0.551463127136231,0.000190061333692619
312,0.530770778656006,0.000254078597941351
313,0.511785507202148,0.000205547237578518
314,0.491463661193848,0.000297625848967922
315,0.472172260284424,0.000302012259107811
316,0.452538967132568,0.000340775470803247
317,0.432591438293457,0.000223501872475772
318,0.413804531097412,0.000208495104896827
319,0.394967555999756,0.000157953343298061
320,0.376925468444824,0.00020264625526876
321,0.358057975769043,0.000150740889041742
322,0.340554714202881,0.000153828583659631
323,0.323620796203613,0.00018011067992442
324,0.3064866065979,0.000174483310511771
325,0.290326595306396,0.000178411029851433
326,0.274977684020996,0.000269908365213106
327,0.259748935699463,0.000249192014836448
328,0.244940280914307,0.000268570671906311
329,0.231626510620117,0.000280555359011793
330,0.217751502990723,0.000200230730517456
331,0.205278873443604,0.000176875093644032
332,0.192763328552246,0.000145331329930173
333,0.181735992431641,0.000188451450285821
334,0.17024040222168,0.000177162812571329
335,0.1600341796875,0.000156245501647212
336,0.150506496429443,0.000143653871452278
337,0.140852451324463,0.000148531521842691
338,0.132608413696289,0.000160333613898059
339,0.124184131622314,0.000160990280813542
340,0.116286754608154,0.000131596689230612
341,0.109044075012207,0.000107304253990442
342,0.101876258850098,0.000143913214642621
343,0.0956783294677734,0.000120768836149818
344,0.0894856452941895,0.000102727148430545
345,0.0837140083312988,0.000148583560298022
346,0.0783038139343262,0.000131651967443281
347,0.0729084014892578,0.000104598119079539
348,0.0682015419006348,0.000119838958975558
349,0.0633916854858398,0.000128654164633585
350,0.0589942932128906,0.0000814401013793517
351,0.0549049377441406,0.0000954270176705814
352,0.0509967803955078,0.000111663412154367
353,0.0469861030578613,0.00009549609088689
354,0.0434961318969727,0.000122779781242215
355,0.0399389266967773,0.000166786704951045
356,0.0363349914550781,0.000158493670734728
357,0.0326523780822754,0.000181448913483052
358,0.0295281410217285,0.000161058059063388
359,0.0269360542297363,0.000180151072542089
360,0.0241222381591797,0.000246321356249667
361,0.0228643417358398,0.000173704911346855
362,0.0213546752929687,0.000142662792753663
363,0.0194926261901855,0.000137775411161436
364,0.0179505348205566,0.000146108383195538
365,0.0152182579040527,0.000146108383195538
366,0.0138282775878906,0.000157229054213558
367,0.0121369361877441,0.000172174534439872
368,0.0101318359375,0.000219602019723881
369,0.00848674774169922,0.000210046632877094
370,0.00701045989990234,0.000185469427697547
371,0.00555276870727539,0.000146732641477861
372,0.00390625,0.000151682192332356
373,0.00250816345214844,0.0000995231231908348
374,0.00128412246704102,0.000201119037802614
375,-0.000164031982421875,0.000144788994318857
376,-0.00129270553588867,0.00015796773763191
377,-0.00253438949584961,0.000154336211691984
378,-0.00396108627319336,0.000113065722162467
379,-0.00483322143554688,0.000138463527014782
380,-0.00574207305908203,0.000155241072553558
381,-0.0063328742980957,0.000160069624658606
382,-0.00748920440673828,0.000179224813787646
383,-0.00818824768066406,0.000169109879671615
384,-0.00888586044311523,0.000157388048140535
385,-0.00950050354003906,0.000163660071389489
386,-0.00997400283813477,0.000193179674404806
387,-0.0103144645690918,0.000122650080991919
388,-0.0105981826782227,0.000118349791527717
389,-0.0110297203063965,0.000172383062947109
390,-0.0114712715148926,0.000183398290779839
391,-0.0119128227233887,0.000190873095965932
392,-0.0114264488220215,0.000172865143743472
393,-0.0120439529418945,0.000151562223798276
394,-0.0121273994445801,0.000176736204660192
395,-0.0122823715209961,0.000186403689841518
396,-0.0123744010925293,0.000112523466400266
397,-0.0125203132629395,0.000114714771672843
398,-0.0121502876281738,0.000121743913225436
399,-0.0120644569396973,0.000140617652914722
400,-0.0125570297241211,0.000156041635968945
401,-0.0121006965637207,0.00013838139667538
402,-0.0122222900390625,0.000192896986080483
403,-0.0120692253112793,0.000148494777835736
404,-0.0118837356567383,0.000147014394169183
405,-0.0120120048522949,0.000160137792576236
406,-0.0116405487060547,0.000121397908332592
407,-0.0117511749267578,0.000149447185960251
408,-0.0112409591674805,0.000187202163044967
409,-0.0111637115478516,0.000179933855607311
410,-0.0109004974365234,0.000145102730319051
411,-0.0107040405273437,0.000127085824992733
412,-0.0106363296508789,0.000153621510608391
413,-0.0100674629211426,0.000171653429483181
414,-0.0102839469909668,0.000211861706124296
415,-0.00987005233764648,0.000145593931927885
416,-0.00993633270263672,0.000152188015544422
417,-0.00914525985717773,0.000148608042677542
418,-0.00919628143310547,0.000130500146707573
419,-0.0090641975402832,0.0000987571082730858
420,-0.00850296020507813,0.000146571396768191
421,-0.00827264785766602,0.000175232303304093
422,-0.00796222686767578,0.000125906682316318
423,-0.00793695449829102,0.000155059349721547
424,-0.00793170928955078,0.000200103507566097
425,-0.00767087936401367,0.000160696244721022
426,-0.00702571868896484,0.000129972899447271
427,-0.00681447982788086,0.000177690793421463
428,-0.00691890716552734,0.00012850208482896
429,-0.00607204437255859,0.0000858280393403568
430,-0.00588226318359375,0.000117802907039692
431,-0.00596046447753906,0.000120070209732279
432,-0.00600624084472656,0.000128335651922628
433,-0.00527715682983398,0.000115844935461204
434,-0.00501585006713867,0.000091981381068359
435,-0.00524759292602539,0.0000968061640964472
436,-0.00450992584228516,0.000127211002781386
437,-0.00468873977661133,0.000152307491159891
438,-0.00423765182495117,0.000154383348048491
439,-0.00403928756713867,0.000124909493670075
440,-0.00413656234741211,0.000153218397205306
441,-0.00350618362426758,0.000139494226204642
442,-0.00357627868652344,0.000145637652892535
443,-0.00306940078735352,0.000156754005874808
444,-0.00337076187133789,0.000114176364926644
445,-0.00295543670654297,0.00011871234309865
446,-0.0030207633972168,0.000124021669059821
447,-0.00256252288818359,0.000116802719462968
448,-0.00282716751098633,0.000101363512399328
449,-0.00228595733642578,0.000124858514659953
450,-0.00262975692749023,0.000135267196356943
451,-0.00258350372314453,0.000105632077271543
452,-0.00237274169921875,0.0000979897459633797
453,-0.00213384628295898,0.000120565331132485
454,-0.00217390060424805,0.000103096119385112
455,-0.00212287902832031,0.00011156155362136
456,-0.00214385986328125,0.0000993035563510843
457,-0.00217866897583008,0.000102147824088866
458,-0.00182723999023437,0.000146593113117536
459,-0.00191164016723633,0.000107665986836358
460,-0.00181198120117187,0.0000948030940577367
461,-0.00165271759033203,0.00011991862022673
462,-0.00205039978027344,0.0000989319323228318
463,-0.00147199630737305,0.000105304388091696
464,-0.00147104263305664,0.000133657378891791
465,-0.00139474868774414,0.000112017157850975
466,-0.00146389007568359,0.000120206476840549
467,-0.00137710571289062,0.0000923095653814412
468,-0.00109958648681641,0.0000964979870468919
469,-0.00151634216308594,0.000120646397406528
470,-0.00138187408447266,0.000115339407848457
471,-0.00129938125610352,0.00010171060655269
472,-0.00109148025512695,0.000109943800798013
473,-0.00121974945068359,0.0000978806272378555
474,-0.00115728378295898,0.000104099132424936
475,-0.000947952270507813,0.000116631288713907
476,-0.000984668731689453,0.0000911694690096569
477,-0.000917911529541016,0.0000982261398190834
478,-0.000764846801757813,0.000118809984929158
479,-0.000825881958007813,0.0000784132573697578
480,-0.000795364379882813,0.0000577908144236428
481,-0.000880718231201172,0.0000656443896841165
482,-0.000947475433349609,0.00008165618796131
483,-0.000713825225830078,0.000100201630526765
484,-0.000907421112060547,0.0000770693358191411
485,-0.000239372253417969,0.0000414882581765507
486,-0.000283718109130859,0.0000509580323442677
487,-0.0009307861328125,0.0000689520380664559
488,-0.000677108764648438,0.0000589766801379396
489,-0.000628471374511719,0.0000672408026141023
490,-0.000693798065185547,0.0000873796773934519
491,-0.000729084014892578,0.000101089477539062
492,-0.000564098358154297,0.0000998561223104898
493,-0.000489711761474609,0.0000781285715404359
494,-0.000672340393066406,0.0000607326581259219
495,-0.000576496124267578,0.0000621628153654396
496,-0.000307083129882812,0.0000619741569171141
497,-0.000274181365966797,0.0000969798159981439
498,-0.000286579132080078,0.0000801625524504841
499,-0.000131130218505859,0.00010048487537477
500,-0.000194549560546875,0.000113372985639463
501,0.0000309944152832031,0.0000708452292799869
502,0.0000200271606445312,0.0000773608590395771
503,0.000003814697265625,0.0000682260498905942
504,0.000167369842529297,0.0000830504692615908
505,0.000236988067626953,0.0000747327210123659
506,0.000275135040283203,0.0000915055351980003
507,0.000413894653320313,0.000057073244821017
508,0.000492095947265625,0.0000641855406252524
509,0.000451564788818359,0.0000716288139394792
510,0.000588417053222656,0.000094440244562031
511,0.000806331634521484,0.0000781125635254607
512,0.000831127166748047,0.0000612174233258421
513,0.000875473022460938,0.0000621774444920445
514,0.000981807708740234,0.0000604192383205969
515,0.00109672546386719,0.0000524271558984036
516,0.00109195709228516,0.0000528052750092079
517,0.00121355056762695,0.0000677729711435815
518,0.00127267837524414,0.0000578773070682061
519,0.00150299072265625,0.0000914607977198784
520,0.00142192840576172,0.0000727407231283788
521,0.00160551071166992,0.0000816798529923709
522,0.00155735015869141,0.0000638659249034737
523,0.00155925750732422,0.0000647989943163485
524,0.0018315315246582,0.0000770752360898449
525,0.00191974639892578,0.0000993630702781271
526,0.001922607421875,0.0000928915011347683
527,0.0019993782043457,0.0000899896706549488
528,0.00217247009277344,0.0000716510308218433
529,0.002197265625,0.0000742626992363972
530,0.00223350524902344,0.0000627561903906875
531,0.00232696533203125,0.0000799125587658074
532,0.00235986709594727,0.0000768018742502312
533,0.00260162353515625,0.0000886455538835316
534,0.00254678726196289,0.0000610128004139836
535,0.00270271301269531,0.0000582863943955624
536,0.0025486946105957,0.000077346161990023
537,0.0027623176574707,0.0000759474515612204
538,0.0028538703918457,0.0000852538967392011
539,0.00278949737548828,0.0000658380721820572
540,0.00279903411865234,0.0000526079117385876
541,0.0029144287109375,0.0000574672859022873
542,0.00309848785400391,0.0000589091734915058
543,0.00291967391967773,0.0000725106121264281
544,0.00333404541015625,0.000080615100269853
545,0.00303411483764648,0.0000824500948962568
546,0.00308704376220703,0.0000637554640473949
547,0.00313520431518555,0.0000641713692853158
548,0.00323915481567383,0.0000538593849881778
549,0.00314664840698242,0.0000555673871305741
550,0.00318431854248047,0.0000804965527384945
551,0.00313043594360352,0.0000813157663406343
552,0.00344276428222656,0.0000638979584175748
553,0.00346755981445312,0.0000714603762709066
554,0.00334835052490234,0.0000781547594015041
555,0.00346755981445312,0.0000521946136332389
556,0.00340700149536133,0.0000835608652371803
557,0.00338315963745117,0.000062474767007637
558,0.00360822677612305,0.0000401046697613453
559,0.00355291366577148,0.000057855696029324
560,0.00367021560668945,0.000076741159540726
561,0.00352811813354492,0.0000711830201470296
562,0.00353717803955078,0.0000609708611277479
563,0.00363492965698242,0.0000587787631577929
564,0.0035710334777832,0.0000472670470296717
565,0.00371646881103516,0.0000642262658099559
566,0.00377845764160156,0.0000911345467788718
567,0.00385427474975586,0.0000682377131753545
568,0.00392293930053711,0.0000549563875351396
569,0.00387811660766602,0.000057789830808804
570,0.00388908386230469,0.0000500826586819431
571,0.00392961502075195,0.0000635518575408944
572,0.00396728515625,0.0000475834746531157
573,0.00399684906005859,0.0000374916532256189
574,0.00411081314086914,0.0000516505114589918
575,0.00402116775512695,0.0000546129489006645
576,0.00408315658569336,0.0000703912433137739
577,0.00410032272338867,0.0000510894911625726
578,0.00434684753417969,0.0000441621750043442
579,0.00390720367431641,0.0000594164739089198
580,0.00423860549926758,0.0000513148568672667
581,0.00407791137695313,0.000043641672657567
582,0.00442647933959961,0.0000410855469294319
583,0.00365734100341797,0.0000546951135642537
584,0.00425243377685547,0.0000553562555087358
585,0.00435876846313477,0.0000489472820302143
586,0.00398159027099609,0.0000503283493116713
587,0.00420761108398438,0.0000649462012218374
588,0.004119873046875,0.0000695348920204837
589,0.00390815734863281,0.0000545671326603006
590,0.00412368774414063,0.0000405374690360301
591,0.00418758392333984,0.0000431833903155793
592,0.00424385070800781,0.0000427959689187572
593,0.00431966781616211,0.0000604963360868595
594,0.00399494171142578,0.000047280273794894
595,0.00420188903808594,0.0000524965011520739
596,0.00403833389282227,0.0000517560553983465
597,0.00420188903808594,0.0000451763888638573
598,0.00409364700317383,0.0000581526325703935
599,0.00444507598876953,0.0000433358151224063
600,0.00404834747314453,0.000038514010634739
601,0.0042719841003418,0.0000448455143720683
602,0.00414085388183594,0.0000487016272355049
603,0.00423192977905273,0.0000465997026527057
604,0.00411796569824219,0.0000552904970707829
605,0.00411891937255859,0.0000718570024120152
606,0.0042572021484375,0.0000688051400434846
607,0.00421571731567383,0.0000609316917496537
608,0.00432014465332031,0.0000531614625355779
609,0.00418519973754883,0.0000605592577403456
610,0.00437784194946289,0.0000421664001136831
611,0.00415992736816406,0.0000483266873198977
612,0.00423145294189453,0.0000416666737194943
613,0.00426816940307617,0.0000568407093658287
614,0.00427579879760742,0.0000591008832603958
615,0.00427341461181641,0.0000672982632848259
616,0.00422954559326172,0.0000643323840722362
617,0.00423240661621094,0.0000480388292833108
618,0.00426435470581055,0.0000505199911604335
619,0.00417518615722656,0.0000639939627496849
620,0.0042877197265625,0.0000650808483822739
621,0.00405311584472656,0.0000495015767451069
622,0.00420045852661133,0.000068586689461185
623,0.00420570373535156,0.0000601571227566153
624,0.00417661666870117,0.0000701372188514367
625,0.00411748886108398,0.0000559181793757212
626,0.004119873046875,0.0000494395288308328
627,0.0042877197265625,0.0000556859244845122
628,0.00441122055053711,0.0000483384482135326
629,0.00440835952758789,0.0000757511019534425
630,0.00453615188598633,0.0000491547186147729
631,0.00438594818115234,0.0000654223361440372
632,0.00429821014404297,0.0000633278523831949
633,0.00426626205444336,0.0000571200363775502
634,0.00424814224243164,0.0000404588671731512
635,0.00433254241943359,0.0000481487486319135
636,0.00433444976806641,0.0000426855824390899
637,0.0043635368347168,0.0000429047465484695
638,0.00427007675170898,0.0000548487110130166
639,0.00433444976806641,0.0000535343954119613
640,0.00422477722167969,0.0000603373317636711
641,0.00428009033203125,0.0000541834743932411
642,0.00437355041503906,0.000044284285595433
643,0.00424289703369141,0.0000462089405427931
644,0.00439739227294922,0.0000584208229592894
645,0.00428676605224609,0.0000656565115790371
646,0.00437545776367188,0.0000740357831991396
647,0.00427961349487305,0.0000869361890798822
648,0.00436687469482422,0.0000601145865049158
649,0.00449180603027344,0.000066947665309083
650,0.00439023971557617,0.0000650773545774999
651,0.00432157516479492,0.0000625311530086985
652,0.00439929962158203,0.0000702182180917922
653,0.00434064865112305,0.0000876784122046908
654,0.00457239151000977,0.0000499781303329929
655,0.00439977645874023,0.0000489403136189278
656,0.00735187530517578,0.0000446193220721801
657,0.00304889678955078,0.0000395465925601361
658,0.00405359268188477,0.0000679338169873538
659,0.00456142425537109,0.0000630417676867666
660,0.00442075729370117,0.0000579666125946659
661,0.00456523895263672,0.0000597094567966405
662,0.00447225570678711,0.000063464141740052
663,0.00449323654174805,0.0000689157553296649
664,0.00447511672973633,0.0000588010016549676
665,0.00450372695922852,0.0000661739345615871
666,0.00449562072753906,0.0000609382217277372
667,0.00446844100952148,0.0000541740317475404
668,0.00452804565429688,0.0000545733825943855
669,0.00459861755371094,0.0000555499940259027
670,0.00453615188598633,0.0000459201858234539
671,0.00458621978759766,0.0000367149129764079
672,0.00453901290893555,0.0000328965804951223
673,0.00442600250244141,0.0000405101160515682
674,0.00456762313842773,0.0000453170943089169
675,0.00455808639526367,0.0000601580676650456
676,0.00451278686523438,0.0000532810850560166
677,0.00455236434936523,0.0000572452888657711
678,0.00458955764770508,0.000069503820819196
679,0.00458240509033203,0.0000506234006751884
680,0.00461387634277344,0.0000480530265536287
681,0.00466203689575195,0.0000531732230933634
682,0.0045924186706543,0.00005946715710515
683,0.00461864471435547,0.000051013776593049
684,0.00470161437988281,0.0000495876256043868
685,0.00478267669677734,0.0000683392661184182
686,0.00480413436889648,0.0000582834685920621
687,0.00470638275146484,0.0000539995713012773
688,0.00474834442138672,0.0000584023330469248
689,0.00475692749023438,0.0000556297529171226
690,0.00479888916015625,0.0000438119683202178
691,0.0048222541809082,0.0000401719387316363
692,0.00474262237548828,0.0000496311667494756
693,0.00478124618530273,0.0000559395227749351
694,0.00481986999511719,0.0000523848536212937
695,0.00473785400390625,0.0000617683598125888
696,0.00476884841918945,0.0000585364953591305
697,0.00471735000610352,0.0000438430958327202
698,0.00469064712524414,0.0000537008410143315
699,0.00466346740722656,0.0000669357772391483
700,0.00465583801269531,0.0000443791705272786
701,0.00457143783569336,0.0000454986112763116
702,0.0045318603515625,0.0000418314212788798
703,0.00447225570678711,0.0000410710172103696
704,0.00443601608276367,0.0000426509447771509
705,0.00445938110351563,0.0000376905012005738
706,0.00432634353637695,0.000050669417366566
707,0.00445556640625,0.0000581878114472883
708,0.00437736511230469,0.0000516681170876101
709,0.00438690185546875,0.0000565559827011932
710,0.00423955917358398,0.0000510226900210807
711,0.004302978515625,0.0000474458962790853
712,0.00426816940307617,0.0000404981871741303
713,0.00432491302490234,0.0000345674052811756
714,0.00437641143798828,0.0000454561137317124
715,0.00436305999755859,0.0000467044896703159
716,0.00439786911010742,0.0000558734334351808
717,0.00447225570678711,0.0000403258791196174
718,0.00443124771118164,0.000047717082747047
719,0.00455808639526367,0.0000505818374807101
720,0.00456953048706055,0.0000486514127375973
721,0.00459957122802734,0.00004503019473201
722,0.00460624694824219,0.0000442264857636282
723,0.00466346740722656,0.0000441660362906554
724,0.00476408004760742,0.0000508329433986919
725,0.0047144889831543,0.0000502650602459123
726,0.00479364395141602,0.0000502164091458476
727,0.0046849250793457,0.0000510972789404155
728,0.00478649139404297,0.0000547480910765883
729,0.00473690032958984,0.000043691139744617
730,0.00480222702026367,0.0000433908713845169
731,0.004791259765625,0.0000614287678344266
732,0.00481224060058594,0.0000520932319636148
733,0.00472593307495117,0.0000484488610644069
734,0.00482463836669922,0.0000534929687477997
735,0.00473213195800781,0.0000572552178032954
736,0.00466728210449219,0.000053043713546209
737,0.00465774536132813,0.0000517966763739954
738,0.00464105606079102,0.0000517340848342974
739,0.00462865829467773,0.0000525159880064032
740,0.00459098815917969,0.0000446817027118405
741,0.00455141067504883,0.000048488735711717
742,0.00443077087402344,0.0000479511865642518
743,0.00453281402587891,0.0000422162493779695
744,0.00444841384887695,0.0000354707236050398
745,0.00446891784667969,0.0000546067034950863
746,0.00439834594726563,0.0000556389485087524
747,0.00449323654174805,0.0000468114707853123
748,0.00440216064453125,0.0000453709992244529
749,0.00443267822265625,0.0000522338053226171
750,0.00448942184448242,0.0000381864403163781
751,0.00454330444335938,0.0000355187674081854
752,0.00448989868164063,0.0000335806453684367
753,0.00451087951660156,0.0000352545224530353
754,0.00455951690673828,0.0000395588083900166
755,0.00454330444335938,0.0000420543611414597
756,0.00460958480834961,0.0000502876726273908
757,0.00474023818969727,0.0000620987724155415
758,0.00467491149902344,0.0000460561507098662
759,0.00464391708374023,0.0000502311225874313
760,0.00470209121704102,0.0000349305594837421
761,0.00474071502685547,0.0000519807182725446
762,0.00471782684326172,0.0000594222137991818
763,0.00476741790771484,0.0000370340115336372
764,0.0049128532409668,0.0000414553625290964
765,0.00483989715576172,0.000039750176277268
766,0.00477409362792969,0.0000417763508373265
767,0.00472736358642578,0.0000594528171881095
768,0.00475215911865234,0.000040018826606791
769,0.00480127334594727,0.0000449265636000526
770,0.00486040115356445,0.0000423526967921956
771,0.00471353530883789,0.0000408197395516785
772,0.00472736358642578,0.0000369317997877857
773,0.00468969345092773,0.000053221307404404
774,0.00461292266845703,0.0000406452984040179
775,0.00456762313842773,0.0000449164404445388
776,0.00458097457885742,0.0000533727560913856
777,0.00457620620727539,0.0000360863669920131
778,0.00450658798217773,0.000054460774042601
779,0.00457572937011719,0.0000576460429396749
780,0.0045623779296875,0.0000423177866598774
781,0.00452899932861328,0.0000515237939949831
782,0.00448894500732422,0.0000604013601612114
783,0.00447225570678711,0.0000559324092134733
784,0.00443935394287109,0.000041665309455338
785,0.0044713020324707,0.0000387076069311082
786,0.00448369979858398,0.0000513680007740102
787,0.00441122055053711,0.0000505447387695313
788,0.00448036193847656,0.0000482148157492239
789,0.00447845458984375,0.000056591149649198
790,0.0044407844543457,0.0000592900557361021
791,0.00441408157348633,0.0000398465854951223
792,0.00452280044555664,0.0000487727730653804
793,0.00446796417236328,0.0000538256014596926
794,0.00458765029907227,0.0000472610336399511
795,0.00459003448486328,0.0000396850571746791
796,0.00453281402587891,0.0000424070187881603
797,0.00451755523681641,0.0000386458793036058
798,0.00458049774169922,0.0000384157368856085
799,0.00458526611328125,0.0000419101615697073
800,0.0045781135559082,0.0000361783991172767
801,0.00461864471435547,0.0000423211446547137
802,0.00470256805419922,0.0000412112565778237
803,0.00466632843017578,0.0000543018923241682
804,0.00462913513183594,0.0000725795653932207
805,0.00459766387939453,0.0000622048648314014
806,0.004669189453125,0.0000399626807521017
807,0.0046086311340332,0.000040232031418529
808,0.00468683242797852,0.0000512405846686074
809,0.00456380844116211,0.0000624001137175675
810,0.00467300415039063,0.0000493393986194903
811,0.00465202331542969,0.00005781343294612
812,0.00462102890014648,0.0000605320310229856
813,0.00458908081054688,0.0000518975420657164
814,0.00454473495483398,0.0000426749276913572
815,0.00453996658325195,0.0000522131244857493
816,0.00459861755371094,0.0000522055031648992
817,0.00451946258544922,0.0000447389144361681
818,0.00443792343139648,0.0000437171525712516
819,0.00448179244995117,0.000051047193923047
820,0.00448179244995117,0.0000385486790416902
821,0.00445365905761719,0.000040621516541242
822,0.00439786911010742,0.0000450339815929694
823,0.00443887710571289,0.0000534376832384372
824,0.00443696975708008,0.0000511917502760061
825,0.00439596176147461,0.0000612656888822518
826,0.00442123413085938,0.0000457813339717806
827,0.00449371337890625,0.0000465313423877732
828,0.00442981719970703,0.0000435556226113301
829,0.00444936752319336,0.0000452543334357848
830,0.00441312789916992,0.0000523305699093588
831,0.00442886352539063,0.0000589940265041456
832,0.00452280044555664,0.0000746642335694753
833,0.00447845458984375,0.0000534695857008749
834,0.00458574295043945,0.0000393224449882214
835,0.00454092025756836,0.0000510316018922497
836,0.00460577011108398,0.0000823949221820375
837,0.00447273254394531,0.0000572184721283878
838,0.00467109680175781,0.0000521880788235853
839,0.00462579727172852,0.0000373427737520038
840,0.00472640991210938,0.0000464812291582483
841,0.00472879409790039,0.0000506110476151772
842,0.00475406646728516,0.0000435125337737966
843,0.00473594665527344,0.0000514199842949376
844,0.00479221343994141,0.0000443932577302479
845,0.00485801696777344,0.0000492471451874648
846,0.00484991073608398,0.0000558541002426757
847,0.00482273101806641,0.0000418660580969001
848,0.00494956970214844,0.0000589400432665215
849,0.00494003295898438,0.0000648042574638156
850,0.00490236282348633,0.0000534940313707127
851,0.00484514236450195,0.0000374954434389615
852,0.00485038757324219,0.0000414862029627628
853,0.0048518180847168,0.0000438106708605797
854,0.00485038757324219,0.0000437223532794036
855,0.0048069953918457,0.0000507960280822211
856,0.00487327575683594,0.0000506278919497104
857,0.00477790832519531,0.0000594757593958083
858,0.00477123260498047,0.0000602383307072709
859,0.00480270385742188,0.000059434648326427
860,0.00479412078857422,0.0000637233589019026
861,0.00472116470336914,0.0000487984067661739
862,0.00462675094604492,0.0000485999767541538
863,0.00474643707275391,0.0000545629656398546
864,0.00471353530883789,0.0000524184812913703
865,0.00452518463134766,0.0000582590811820685
866,0.00453567504882813,0.000062882871989384
867,0.00461101531982422,0.0000570134551148801
868,0.00455427169799805,0.0000477956411943406
869,0.00454807281494141,0.0000453584689142842
870,0.00448322296142578,0.0000506873637672231
871,0.00452899932861328,0.0000523696598537385
872,0.00432395935058594,0.0000655334569649104
873,0.00453090667724609,0.0000510449667816693
874,0.00442790985107422,0.0000517011114823525
875,0.00455522537231445,0.0000508239966932239
876,0.00442886352539063,0.0000616190961165979
877,0.00444221496582031,0.0000614546723131129
878,0.00444698333740234,0.0000543406102558782
879,0.00453567504882813,0.0000498847791504428
880,0.00451231002807617,0.0000537389342265409
881,0.00449705123901367,0.0000558357784116947
882,0.00441455841064453,0.0000585219273978881
883,0.00466299057006836,0.0000556859244845122
884,0.00446939468383789,0.0000553192760056606
885,0.00465631484985352,0.0000436090979201266
886,0.00463628768920898,0.000041332458315986
887,0.00466012954711914,0.0000464616581135246
888,0.00465250015258789,0.0000666702930939991
889,0.0047764778137207,0.0000775589966253184
890,0.00473642349243164,0.0000666344740660226
891,0.00477457046508789,0.0000527374136455478
892,0.004791259765625,0.0000542023547496048
893,0.0048518180847168,0.0000579773984490079
894,0.00496482849121094,0.0000625329710654524
895,0.00473690032958984,0.0000422841920444018
896,0.00495815277099609,0.0000711590595224584
897,0.00497293472290039,0.00007319877500218
898,0.00500297546386719,0.0000668252870229906
899,0.00494861602783203,0.0000659640055405759
900,0.00515222549438477,0.0000738358897562857
