Wavelength (nm),Absorbance (AU),Std.Dev.
200,2.03585195541382,0.917893946420282
201,1.98419952392578,0.721166115680881
202,2.35442113876343,0.347085205170773
203,2.6832914352417,0.431450573261838
204,3.14152383804321,0.832443779773971
205,3.23938512802124,0.777490956539046
206,3.98918056488037,1.41916809643449
207,3.57788705825806,0.739117829588507
208,3.99962091445923,0.52330630352088
209,3.5402455329895,0.54302495212726
210,3.87434148788452,0.69186954816619
211,3.42484617233276,1.37337883833768
212,3.99999952316284,1.04494925489829
213,3.94298458099365,0.871977900513754
214,3.64241600036621,1.62342170949972
215,3.92406368255615,0.88452198977223
216,3.3364315032959,0.963474800607805
217,3.99999952316284,0.490440538074412
218,3.72919702529907,0.376117313345766
219,3.85399913787842,0.436172651631496
220,3.7294921875,0.87540099628506
221,3.94635009765625,1.43979097332738
222,3.86607360839844,0.687832838465768
223,3.53990030288696,0.453713922248577
224,3.92329597473145,0.705172799218612
225,3.78878831863403,0.368121319219714
226,3.52399969100952,0.568785412702475
227,3.91274166107178,0.975874757829482
228,3.99999952316284,0.716581306992619
229,3.61659097671509,0.2814194910301
230,3.59093427658081,0.181567105417064
231,3.90649795532227,0.315990032956317
232,3.99999952316284,0.412104746715717
233,3.61348152160645,0.202089457730435
234,3.33028745651245,0.0440942571382401
235,3.20546770095825,0.0306661422898891
236,2.92693424224854,0.0344021776441573
237,2.80500173568726,0.0255934609570327
238,2.66043853759766,0.0127351575739697
239,2.52837228775024,0.00853336097115521
240,2.42384147644043,0.00751786151529243
241,2.3106575012207,0.00745328980589539
242,2.23772764205933,0.00488376608120233
243,2.19268417358398,0.00412348835875097
244,2.14475250244141,0.00354792276106778
245,2.11883449554443,0.00365708324115894
246,2.09870481491089,0.00438158459385682
247,2.09374904632568,0.0076970873882001
248,2.0905909538269,0.00525026528505645
249,2.10404825210571,0.00796152086151443
250,2.11615467071533,0.00406812022326247
251,2.12888193130493,0.00403709611673674
252,2.18389940261841,0.00665814948403059
253,2.19687509536743,0.00971648249285308
254,2.20991611480713,0.0134866980433574
255,2.26327419281006,0.0129923190387208
256,2.28401327133179,0.0192488278366508
257,2.3097038269043,0.0151155385145639
258,2.40060472488403,0.0183312870819934
259,2.40472173690796,0.0159608975866027
260,2.42415046691895,0.0231187121116408
261,2.5503101348877,0.0358080314790998
262,2.52800703048706,0.0283986028905195
263,2.51339197158813,0.0342519813020213
264,2.62995719909668,0.0372888341641343
265,2.66000032424927,0.0201619363496705
266,2.60429668426514,0.0296532885536992
267,2.73554277420044,0.0504408947866939
268,2.92843580245972,0.0579359643561868
269,2.74747037887573,0.0388275711357787
270,2.77890491485596,0.042524643653305
271,3.05062198638916,0.0550579060988231
272,2.88777828216553,0.0466225501841002
273,2.86073017120361,0.0280315542215193
274,2.77138042449951,0.052963324975113
275,2.95835399627686,0.0741400049985602
276,2.87912750244141,0.0428611100722125
277,2.79437017440796,0.0450437799052688
278,2.72053480148315,0.0418791914023644
279,2.8068699836731,0.0405258729966563
280,2.71000146865845,0.0163883656707406
281,2.61849069595337,0.0195052928099354
282,2.54303073883057,0.0188190302113094
283,2.4251389503479,0.00992248443173633
284,2.25970506668091,0.00649802299841395
285,2.08054685592651,0.00604016808855406
286,1.92280673980713,0.00279681574369772
287,1.76130485534668,0.00236373368968712
288,1.60609912872314,0.00165615862693294
289,1.47310018539429,0.00135388974803194
290,1.36508750915527,0.00106694293403381
291,1.25336742401123,0.000911465216224659
292,1.1672568321228,0.00104753559535735
293,1.089430809021,0.000677363925191183
294,1.02249526977539,0.000627514801482489
295,0.962430477142334,0.000703478168166077
296,0.910176277160645,0.000712766767219645
297,0.864387512207031,0.000472937853229801
298,0.822523593902588,0.000514503537324304
299,0.784963607788086,0.000794629917376192
300,0.752146244049072,0.000625645241113396
301,0.720741271972656,0.000502339289698815
302,0.693111419677734,0.000568031351563079
303,0.666673183441162,0.000352617129006491
304,0.641312599182129,0.000422760715813096
305,0.617334365844727,0.000338778623006425
306,0.594644069671631,0.000525459836279646
307,0.572573661804199,0.000690765734774206
308,0.550983428955078,0.000602782524080694
309,0.531248092651367,0.000370762278562379
310,0.509943962097168,0.000280944101555206
311,0.489809513092041,0.00041422413311838
312,0.469975471496582,0.00033712083580453
313,0.45092248916626,0.000255776802872994
314,0.431816577911377,0.000245366891162114
315,0.412843227386475,0.000239617195799727
316,0.394169807434082,0.000257753310308731
317,0.375683784484863,0.000220808043269812
318,0.358055114746094,0.000246889317129805
319,0.340143203735352,0.000179554359981725
320,0.32301664352417,0.000249111706853312
321,0.306301593780518,0.000190367344591566
322,0.289907932281494,0.000229528625872458
323,0.274220943450928,0.000193809522942558
324,0.258708000183105,0.000198111923821634
325,0.243829250335693,0.000247588252749389
326,0.229820251464844,0.00020613488900919
327,0.216066837310791,0.000166909353272986
328,0.202824592590332,0.000149258409210094
329,0.190298080444336,0.000199420573988049
330,0.178354263305664,0.000176287929137479
331,0.166802406311035,0.000162124633789062
332,0.155919551849365,0.000171486447531943
333,0.145732879638672,0.00016868716825642
334,0.135838031768799,0.000159583085395488
335,0.12667179107666,0.000122003238847236
336,0.11799955368042,0.000178589361950182
337,0.109841346740723,0.000188890119250722
338,0.102362632751465,0.000204179867126677
339,0.0950994491577148,0.000147905632285401
340,0.0880489349365234,0.00013409895317807
341,0.0819921493530273,0.000133135803760118
342,0.0758886337280273,0.000133091392703396
343,0.0703368186950684,0.00010357798753651
344,0.0652260780334473,0.0000860687768353919
345,0.0602235794067383,0.000141857251388245
346,0.0555334091186523,0.000154798116615194
347,0.0510420799255371,0.000126159253648023
348,0.0471019744873047,0.00011188920667296
349,0.0431604385375977,0.000132776674529702
350,0.0392637252807617,0.000134085387960983
351,0.0361409187316895,0.0000945725694756941
352,0.0327882766723633,0.0000968460846499915
353,0.0297260284423828,0.000138650602275556
354,0.0265583992004395,0.000165815965242486
355,0.023888111114502,0.000129566404616801
356,0.0207862854003906,0.000130868998349823
357,0.0176758766174316,0.000114050836142294
358,0.0153226852416992,0.000150680541992187
359,0.012916088104248,0.000184693010925415
360,0.0108942985534668,0.000206346562748696
361,0.00992870330810547,0.000239222126119128
362,0.00940561294555664,0.000171226374155245
363,0.0081334114074707,0.000166734893016108
364,0.00625324249267578,0.000198139466782189
365,0.00446462631225586,0.000198139466782189
366,0.00308370590209961,0.000185145497676346
367,0.00158309936523437,0.00014213587094918
368,0.000106334686279297,0.00015407375250501
369,-0.0010685920715332,0.000180075328951558
370,-0.00208425521850586,0.000147739511803202
371,-0.00339078903198242,0.000157918791543672
372,-0.00445985794067383,0.000162278831305365
373,-0.00553035736083984,0.000141185676960368
374,-0.00656414031982422,0.000187464330677881
375,-0.00772953033447266,0.000142206239996426
376,-0.00868368148803711,0.0001372959838777
377,-0.00928115844726563,0.000131834910971566
378,-0.0104355812072754,0.000110687863506272
379,-0.0111985206604004,0.000121532686783401
380,-0.0116548538208008,0.00011228274825625
381,-0.0123224258422852,0.00009618645878597
382,-0.0130820274353027,0.000133735609731906
383,-0.0136375427246094,0.000159454802005973
384,-0.0137743949890137,0.000151484193302248
385,-0.0142292976379395,0.000166358090516357
386,-0.0147862434387207,0.000201132603858399
387,-0.0148463249206543,0.000162343270473327
388,-0.0148372650146484,0.000133851171568369
389,-0.0152359008789062,0.000160834847927387
390,-0.0155835151672363,0.000167743694616074
391,-0.0153422355651855,0.000145962027216091
392,-0.0154080390930176,0.000173495350513715
393,-0.0156593322753906,0.000121936128299138
394,-0.015749454498291,0.000167830423088031
395,-0.0155391693115234,0.000157872710774805
396,-0.0156750679016113,0.000116277892294952
397,-0.0153393745422363,0.000135562715906785
398,-0.0151553153991699,0.00013959850634906
399,-0.0152397155761719,0.000110463730094255
400,-0.0154991149902344,0.000128417124763587
401,-0.0149698257446289,0.000120983275633381
402,-0.0148591995239258,0.000176236330152286
403,-0.0148100852966309,0.000151855978359275
404,-0.0144128799438477,0.000153307410398898
405,-0.0142145156860352,0.000149857409480403
406,-0.01409912109375,0.000156469447103981
407,-0.0139942169189453,0.000180398279977496
408,-0.013981819152832,0.000218709771946855
409,-0.0133757591247559,0.000198222072701286
410,-0.012901782989502,0.000180070278246046
411,-0.0131087303161621,0.0001279950313998
412,-0.0125007629394531,0.000132896492104677
413,-0.0123186111450195,0.00019253359461367
414,-0.0122323036193848,0.000265840885317822
415,-0.0120587348937988,0.00015398222908901
416,-0.0114784240722656,0.000143438450714957
417,-0.0112524032592773,0.000116336540506768
418,-0.0112009048461914,0.000101674832321976
419,-0.0107288360595703,0.000111445321334774
420,-0.0103316307067871,0.000158286954751302
421,-0.0102968215942383,0.000164952578012411
422,-0.00980997085571289,0.000122538800084998
423,-0.0095367431640625,0.000137890885250856
424,-0.00944185256958008,0.000184308510685803
425,-0.00929880142211914,0.000151306974832716
426,-0.00902128219604492,0.000157520901640922
427,-0.00829696655273438,0.000123959319885411
428,-0.00844717025756836,0.000154900901295549
429,-0.00763511657714844,0.000120802720322423
430,-0.00734996795654297,0.000132797222363185
431,-0.00742053985595703,0.000122768669446976
432,-0.00739383697509766,0.000128978942429098
433,-0.00684595108032227,0.000130712537529903
434,-0.00642490386962891,0.000121513976493585
435,-0.00667715072631836,0.00013332012209996
436,-0.00602149963378906,0.000153772405689039
437,-0.00590372085571289,0.000144631871109992
438,-0.00542211532592773,0.000120310465790455
439,-0.00510978698730469,0.000104273722287522
440,-0.00529241561889648,0.000133504185966748
441,-0.00484323501586914,0.00013591113785488
442,-0.00481557846069336,0.000143365514561091
443,-0.00420522689819336,0.000132968330825297
444,-0.00430488586425781,0.000136668550480023
445,-0.00437784194946289,0.0000998379045457206
446,-0.00392723083496094,0.000112799959564724
447,-0.00386857986450195,0.000112232111591131
448,-0.00370550155639648,0.000111602308190419
449,-0.00365877151489258,0.000104765366705776
450,-0.00364446640014648,0.000135354576104814
451,-0.0036625862121582,0.000122942638855542
452,-0.00348234176635742,0.000143270324646499
453,-0.00317144393920898,0.000121270480033965
454,-0.0033726692199707,0.000106286564017855
455,-0.00317811965942383,0.0000957362671985736
456,-0.00321102142333984,0.0000978597182824376
457,-0.00307607650756836,0.0000928327369339576
458,-0.0030364990234375,0.000142621348349928
459,-0.00295829772949219,0.000106399883930005
460,-0.0028376579284668,0.000089381214247589
461,-0.00256681442260742,0.000127753209052905
462,-0.00305366516113281,0.0000864483543190277
463,-0.00249242782592773,0.000093938130404814
464,-0.00251483917236328,0.0000898278185983018
465,-0.00238037109375,0.0000893226862073853
466,-0.00248622894287109,0.0000989457210658181
467,-0.00252056121826172,0.0000821032725039965
468,-0.00224828720092773,0.0000943848536782562
469,-0.00249385833740234,0.000114893020247238
470,-0.002410888671875,0.000128551618936574
471,-0.00231790542602539,0.000112187532419983
472,-0.00215816497802734,0.000100394323968278
473,-0.00210094451904297,0.000104737148831893
474,-0.0023493766784668,0.000110080210115495
475,-0.00201606750488281,0.000116015568315367
476,-0.00189685821533203,0.0000999016521880656
477,-0.00187397003173828,0.0000830723685913526
478,-0.00179386138916016,0.0000814624336211862
479,-0.00187492370605469,0.0000620126678411063
480,-0.00171041488647461,0.0000523425171562586
481,-0.00171184539794922,0.0000768950741588904
482,-0.00188016891479492,0.0000794588712461212
483,-0.00181150436401367,0.0000816422641504898
484,-0.00179100036621094,0.0000896707458337136
485,-0.00111675262451172,0.0000535768510238618
486,-0.0010371208190918,0.0000546348021980381
487,-0.00178956985473633,0.0000583692312168097
488,-0.00158548355102539,0.0000656530484088694
489,-0.00143241882324219,0.0000859233567875566
490,-0.00161075592041016,0.0000812010419525408
491,-0.00159502029418945,0.000107321204350549
492,-0.00151538848876953,0.0000624456446347656
493,-0.00142383575439453,0.0000609708611277479
494,-0.0014796257019043,0.0000794560096679715
495,-0.00146389007568359,0.0000986811013917191
496,-0.00122547149658203,0.0000919789090818747
497,-0.00129222869873047,0.000110548090475244
498,-0.00124263763427734,0.0000701728700358912
499,-0.000967502593994141,0.0000673151541475482
500,-0.00107192993164062,0.0000951143721975566
501,-0.000827312469482422,0.0000640596604299418
502,-0.0008544921875,0.0000812178410097413
503,-0.000796318054199219,0.0000605977298123304
504,-0.00070953369140625,0.0000674888840215841
505,-0.00067901611328125,0.0000642333458150273
506,-0.000632762908935547,0.0000960894906449127
507,-0.00052642822265625,0.0000763773462302243
508,-0.000516891479492188,0.0000557298010019489
509,-0.000326156616210937,0.0000707472735696003
510,-0.000277996063232422,0.0000839802159136196
511,0.0000157356262207031,0.0000828709508397688
512,-0.000117778778076172,0.0000867109721981987
513,-0.0000286102294921875,0.0000962266364306172
514,0.0000829696655273438,0.0000773108776717497
515,0.000204563140869141,0.0000553120826757266
516,0.000232219696044922,0.0000646936414486275
517,0.000202655792236328,0.0000736416290761993
518,0.000499248504638672,0.0000619778256551322
519,0.000452518463134766,0.000106145279525578
520,0.000551700592041016,0.0000985450641999915
521,0.000680923461914063,0.0000853525193605974
522,0.000652790069580078,0.000077050156818937
523,0.000738143920898438,0.0000854097747874634
524,0.000864028930664063,0.0000819452668362546
525,0.0009307861328125,0.0000978411287931152
526,0.000829219818115234,0.0000834069839633416
527,0.000992298126220703,0.0000991546152539828
528,0.00115966796875,0.0000819105757212028
529,0.00125455856323242,0.0000742596374252171
530,0.00123405456542969,0.0000614898109360039
531,0.00136089324951172,0.0000841533154151095
532,0.00146341323852539,0.0000714062649339291
533,0.00144433975219727,0.0000779493856862868
534,0.00162696838378906,0.0000659708990514674
535,0.00166034698486328,0.0000639442007182484
536,0.00159740447998047,0.0000663455121534647
537,0.00180530548095703,0.0000688827544393324
538,0.00195217132568359,0.0000683675408807902
539,0.00187063217163086,0.0000590441096023418
540,0.00177669525146484,0.0000557695661305337
541,0.00197315216064453,0.000060927027051106
542,0.00203514099121094,0.0000674315857852517
543,0.00202083587646484,0.0000877017485167409
544,0.00214385986328125,0.0000695659493440128
545,0.00205373764038086,0.0000938509533213165
546,0.0019841194152832,0.0000803424624476865
547,0.00217008590698242,0.0000935573461031397
548,0.00215864181518555,0.0000694514589540978
549,0.00213146209716797,0.0000707263802251402
550,0.00216388702392578,0.0000691578286454136
551,0.00208616256713867,0.0000731910089658733
552,0.00232076644897461,0.000070250591638045
553,0.00230026245117187,0.0000801015464727902
554,0.00219249725341797,0.0000754036214523776
555,0.00230026245117187,0.0000523783425463047
556,0.00230216979980469,0.0000662340372769297
557,0.00227832794189453,0.0000663249462781555
558,0.00251102447509766,0.0000563919163067637
559,0.00237751007080078,0.0000562991033292597
560,0.00245094299316406,0.0000818994714609035
561,0.0024113655090332,0.0000741554606255977
562,0.0024561882019043,0.0000518876834222083
563,0.00257158279418945,0.0000668661046713185
564,0.00242519378662109,0.0000817146420584548
565,0.00256490707397461,0.0000634247196757042
566,0.00255107879638672,0.0000701226290517928
567,0.00276994705200195,0.0000727438488711612
568,0.00260829925537109,0.0000638000277255797
569,0.00275802612304687,0.0000705187184768621
570,0.00280857086181641,0.0000615951065300302
571,0.00275754928588867,0.0000620969416464432
572,0.00284528732299805,0.0000545025080416315
573,0.00283718109130859,0.0000415443946504304
574,0.00295639038085937,0.0000549677640633798
575,0.00280666351318359,0.0000521379514054931
576,0.00298500061035156,0.0000507501261927812
577,0.00295257568359375,0.0000408635812485286
578,0.00317764282226562,0.0000477027854934685
579,0.00268268585205078,0.0000589516152646565
580,0.00302696228027344,0.0000446677064781074
581,0.00290155410766602,0.0000402200200639044
582,0.00319051742553711,0.0000395343729556544
583,0.00253915786743164,0.000046513014542624
584,0.00311994552612305,0.0000474303188354805
585,0.00317907333374023,0.0000555663641574772
586,0.00281572341918945,0.0000532405289691327
587,0.00304269790649414,0.0000493774029468721
588,0.00282573699951172,0.000061779402036521
589,0.00274133682250977,0.000059446124043025
590,0.00295209884643555,0.000046674052581939
591,0.00288248062133789,0.0000518975420657164
592,0.00295257568359375,0.0000512938055265093
593,0.0030975341796875,0.00005227622982917
594,0.00281620025634766,0.000044726207044076
595,0.00293111801147461,0.0000594336919166926
596,0.0028386116027832,0.0000546712049486657
597,0.00294351577758789,0.0000514829577107003
598,0.00283908843994141,0.0000498243493533956
599,0.00309038162231445,0.0000463906438635011
600,0.00291109085083008,0.000046057384913254
601,0.0029902458190918,0.0000543678009557313
602,0.0028996467590332,0.0000506436082738943
603,0.00295305252075195,0.0000411733078666978
604,0.00281333923339844,0.0000492852206524436
605,0.00282907485961914,0.0000442174878881235
606,0.00295400619506836,0.000059288138236199
607,0.00293254852294922,0.0000539563948052049
608,0.00305986404418945,0.0000477837467011633
609,0.002960205078125,0.0000558062472537435
610,0.00306415557861328,0.0000450415543597492
611,0.00283718109130859,0.00006192644354414
612,0.00297927856445312,0.0000489472820302143
613,0.00300121307373047,0.0000571638065267911
614,0.00298404693603516,0.0000629388923764312
615,0.00301361083984375,0.0000652012700011442
616,0.00296735763549805,0.0000620841247511284
617,0.00291585922241211,0.0000542086467404263
618,0.00287532806396484,0.000057981320080401
619,0.00284051895141602,0.0000605094893026075
620,0.00303363800048828,0.00007500149818814
621,0.00274515151977539,0.0000574989297968433
622,0.00294256210327148,0.0000545369145485232
623,0.00294256210327148,0.0000494774562468561
624,0.00284481048583984,0.0000570991342507091
625,0.00282144546508789,0.0000492702247393866
626,0.00284242630004883,0.0000490922323067564
627,0.00303173065185547,0.0000653266906738281
628,0.00313520431518555,0.0000632578004211769
629,0.00312662124633789,0.0000756144063171531
630,0.00309276580810547,0.0000448784582742784
631,0.00299739837646484,0.0000595626683245534
632,0.00296163558959961,0.0000523088406513073
633,0.00293827056884766,0.0000524759238441114
634,0.00293731689453125,0.0000402955612910278
635,0.00304937362670898,0.0000460154034271688
636,0.00299835205078125,0.0000386921842564761
637,0.00300025939941406,0.0000463771633765505
638,0.00299644470214844,0.0000513680007740102
639,0.00305271148681641,0.000062296178795052
640,0.00290966033935547,0.0000533439926155893
641,0.00304222106933594,0.000052037551707312
642,0.00303792953491211,0.0000436599038945156
643,0.00298643112182617,0.0000541477935362142
644,0.00291776657104492,0.0000582454197722941
645,0.00286293029785156,0.0000595225722794004
646,0.00299835205078125,0.0000658000723995804
647,0.00306558609008789,0.0000854909318199729
648,0.00301599502563477,0.0000587110289444786
649,0.00310468673706055,0.0000796789041448609
650,0.00300407409667969,0.0000691956274448291
651,0.00296354293823242,0.0000508932925228028
652,0.00313997268676758,0.0000683924794931297
653,0.00303459167480469,0.0000803622703985777
654,0.00319576263427734,0.0000469799560187901
655,0.00307941436767578,0.0000454148280845096
656,0.0061492919921875,0.0000416421101262629
657,0.00192022323608398,0.0000380126256320415
658,0.00286769866943359,0.0000599763722840058
659,0.00313520431518555,0.0000782637811683363
660,0.00303936004638672,0.0000676335981784715
661,0.00322437286376953,0.0000706218207839992
662,0.0031890869140625,0.0000586180090356037
663,0.00313472747802734,0.0000616910089038007
664,0.00313377380371094,0.0000560552451407337
665,0.00313997268676758,0.000059646591685194
666,0.00319671630859375,0.0000547366688912969
667,0.00318479537963867,0.0000398194716904102
668,0.00312948226928711,0.0000511373116351712
669,0.00319814682006836,0.0000454886154259627
670,0.00320339202880859,0.0000445734357664177
671,0.00323295593261719,0.00004611658783191
672,0.00314760208129883,0.0000387963514781395
673,0.0031275749206543,0.0000311772747769881
674,0.00311994552612305,0.0000420658487271677
675,0.00322103500366211,0.0000558490114481023
676,0.00314617156982422,0.0000534068260768006
677,0.00320291519165039,0.0000544064719841097
678,0.00317716598510742,0.0000443253418430695
679,0.00324249267578125,0.0000488612688348751
680,0.00325107574462891,0.0000468490991274487
681,0.00327587127685547,0.0000480695847360038
682,0.00331592559814453,0.0000481274935119231
683,0.00328350067138672,0.0000586655063759487
684,0.00331449508666992,0.000056077550037583
685,0.00343799591064453,0.0000520834103614143
686,0.0034332275390625,0.0000574959639215585
687,0.00332832336425781,0.0000524531711119626
688,0.00343894958496094,0.0000525754864206064
689,0.00342607498168945,0.0000595664855878844
690,0.0034174919128418,0.0000471936313267392
691,0.00344324111938477,0.0000555008546606914
692,0.00347089767456055,0.0000531678777077662
693,0.00343418121337891,0.0000565036942485723
694,0.00348281860351562,0.0000527233996355625
695,0.00339698791503906,0.0000644806562401077
696,0.00340461730957031,0.0000622523648085311
697,0.00341176986694336,0.0000455011098957855
698,0.00333499908447266,0.0000571429204104958
699,0.00326204299926758,0.0000579401297123298
700,0.00330066680908203,0.0000372215615993536
701,0.00323104858398437,0.0000347142691101099
702,0.00314235687255859,0.0000377786257129235
703,0.0030670166015625,0.0000425689012057358
704,0.00308513641357422,0.0000376754165520865
705,0.00309896469116211,0.00004776589940779
706,0.00300264358520508,0.0000621646441945353
707,0.00307655334472656,0.0000591153085479959
708,0.00301504135131836,0.0000503960708260168
709,0.00304222106933594,0.0000555909103162261
710,0.00286865234375,0.0000356274268389094
711,0.00301980972290039,0.0000504715857966465
712,0.00294876098632812,0.000061219280397035
713,0.00299644470214844,0.0000513281480024434
714,0.00299453735351562,0.0000517824077704198
715,0.00299644470214844,0.0000417416395811363
716,0.00300455093383789,0.0000368755781783588
717,0.00299453735351562,0.0000343752962355014
718,0.00315475463867187,0.000039826608691828
719,0.0031743049621582,0.0000447490777517095
720,0.00323915481567383,0.0000504468023010218
721,0.00322771072387695,0.0000523729160321385
722,0.00325727462768555,0.0000480009493666947
723,0.00326919555664062,0.0000485777489246629
724,0.00343847274780273,0.0000396599828958286
725,0.00337696075439453,0.0000493301810399191
726,0.00341415405273437,0.0000505941976726572
727,0.00336837768554687,0.0000353977327232803
728,0.00343751907348633,0.0000479725198003886
729,0.00337409973144531,0.0000403244694935008
730,0.00344467163085937,0.0000310035838724536
731,0.00346231460571289,0.0000434026600687928
732,0.00343704223632812,0.0000408628857159677
733,0.00337886810302734,0.0000492113504909778
734,0.00343608856201172,0.0000500667662718885
735,0.00346994400024414,0.0000513967641131178
736,0.00334548950195312,0.000046548441865827
737,0.00327348709106445,0.0000506480977564858
738,0.00325965881347656,0.0000542201801605571
739,0.00325679779052734,0.0000401754760837086
740,0.00321674346923828,0.0000422559519269854
741,0.00320196151733398,0.0000537537409631422
742,0.00311660766601562,0.0000514807494211799
743,0.00322389602661133,0.0000463979952055746
744,0.00310516357421875,0.0000406466969038
745,0.00311994552612305,0.0000516031665690528
746,0.00303316116333008,0.0000372986036360534
747,0.00315189361572266,0.0000359498535632529
748,0.00311660766601562,0.0000324862265363302
749,0.00310611724853516,0.0000630579958145773
750,0.00311374664306641,0.0000433384384351677
751,0.00324058532714844,0.0000405332620860194
752,0.00321102142333984,0.0000491419963664742
753,0.00316667556762695,0.0000370248010021289
754,0.00321674346923828,0.0000348352308136537
755,0.00323486328125,0.0000434118268322266
756,0.00324773788452148,0.00004522920470186
757,0.00342321395874023,0.0000371504806152009
758,0.00339603424072266,0.000036796878091279
759,0.00335073471069336,0.0000482407459328883
760,0.00330305099487305,0.000032860273654976
761,0.00344085693359375,0.0000402532191834061
762,0.00336503982543945,0.0000444904656254692
763,0.00351762771606445,0.0000355355673937092
764,0.00353431701660156,0.0000349931554607401
765,0.00358819961547852,0.0000376942714194711
766,0.00349903106689453,0.0000408461893814292
767,0.00341033935546875,0.0000532074208446875
768,0.00343036651611328,0.0000367443177210016
769,0.00345325469970703,0.0000412705246240613
770,0.00350666046142578,0.0000444111804350247
771,0.00339794158935547,0.0000432294371750075
772,0.00340080261230469,0.0000338369641471335
773,0.00341701507568359,0.0000434393155160551
774,0.00333404541015625,0.0000436364623336877
775,0.00329494476318359,0.0000474267233142052
776,0.00329446792602539,0.0000600322642899235
777,0.00319051742553711,0.0000398094777388416
778,0.00320529937744141,0.0000433030103039077
779,0.00320863723754883,0.0000495967953378301
780,0.00319671630859375,0.0000373754868664524
781,0.00317144393920898,0.0000481322176830768
782,0.00311756134033203,0.0000483772388767402
783,0.0031428337097168,0.0000459758564222354
784,0.00315475463867187,0.0000351066803862177
785,0.00312948226928711,0.0000408990377248291
786,0.00314712524414062,0.0000372146887280376
787,0.00313806533813477,0.0000416612163948187
788,0.00316762924194336,0.0000402009358302967
789,0.00312042236328125,0.0000451197318595864
790,0.00307035446166992,0.0000589708968819918
791,0.00311994552612305,0.0000586829447235351
792,0.00316810607910156,0.0000492886805998417
793,0.00308799743652344,0.0000500429181936042
794,0.00322532653808594,0.0000476884839534998
795,0.00327396392822266,0.0000333095585792444
796,0.00318098068237305,0.0000409275196779659
797,0.00320196151733398,0.0000526791771840131
798,0.00322437286376953,0.0000457813339717806
799,0.00326395034790039,0.0000459214236810909
800,0.00328397750854492,0.0000353696191990904
801,0.00330018997192383,0.0000331084353195952
802,0.00336265563964844,0.0000460906959121482
803,0.00335311889648437,0.0000513834907265632
804,0.00331497192382812,0.0000466094602202424
805,0.00329351425170898,0.0000429716006415091
806,0.00335359573364258,0.0000484218684188313
807,0.0032954216003418,0.0000401110474487554
808,0.00336837768554687,0.0000519161588400382
809,0.0032963752746582,0.0000580342361671356
810,0.00329399108886719,0.0000519675940377943
811,0.00336933135986328,0.0000524531711119626
812,0.00328445434570312,0.0000356919859364755
813,0.00327253341674805,0.0000432044463979255
814,0.00327301025390625,0.000044441888255762
815,0.00320529937744141,0.0000515954551495513
816,0.00329303741455078,0.0000481251312524419
817,0.00318384170532227,0.000041872167502325
818,0.003143310546875,0.0000473715578146527
819,0.00315427780151367,0.0000505986915393155
820,0.00312185287475586,0.0000407046922719584
821,0.0031280517578125,0.0000410017574356075
822,0.00307512283325195,0.0000485660459808122
823,0.00312042236328125,0.0000400280582520511
824,0.00308752059936523,0.0000478610080676624
825,0.00307703018188477,0.0000578743605835456
826,0.00305604934692383,0.0000420110855871308
827,0.00308561325073242,0.0000458594898686431
828,0.00310373306274414,0.0000520277195939979
829,0.00314235687255859,0.0000356521484506408
830,0.00311374664306641,0.0000435164527038792
831,0.00311946868896484,0.0000701177651106266
832,0.00324726104736328,0.0000726672294675779
833,0.00315523147583008,0.0000517066085012278
834,0.00327014923095703,0.0000379340368068224
835,0.00314474105834961,0.0000531250952605181
836,0.00328826904296875,0.0000661567523281394
837,0.00323772430419922,0.0000431405885092185
838,0.00334787368774414,0.0000444802432195383
839,0.00330257415771484,0.0000549429395102052
840,0.0034327507019043,0.0000569745581594566
841,0.00344276428222656,0.0000537304714022008
842,0.00345563888549805,0.000059295807863764
843,0.00348663330078125,0.0000506088012803138
844,0.0034942626953125,0.0000330723610545069
845,0.00353002548217773,0.0000495830401017318
846,0.00353622436523437,0.0000623399619880837
847,0.00354719161987305,0.0000550359738481751
848,0.0035557746887207,0.0000582092991836789
849,0.00355625152587891,0.0000491477796148633
850,0.00360250473022461,0.0000582941958203115
851,0.00355291366577148,0.0000459622542804753
852,0.0035400390625,0.000047317529332051
853,0.00355863571166992,0.0000421899848092808
854,0.00357913970947266,0.0000363265738661611
855,0.00351524353027344,0.0000527115387170238
856,0.00347709655761719,0.0000528429381101991
857,0.00348711013793945,0.0000585646498087664
858,0.00346231460571289,0.0000521117788283632
859,0.0034637451171875,0.0000598302386702621
860,0.003448486328125,0.0000572810249863213
861,0.00341653823852539,0.0000562738559611443
862,0.00337600708007812,0.0000486829488217644
863,0.00343465805053711,0.0000386517623724942
864,0.00334882736206055,0.0000518493264334558
865,0.00324296951293945,0.0000748892454126944
866,0.00323963165283203,0.000064933946726033
867,0.00324630737304687,0.0000422626774760463
868,0.00322294235229492,0.0000453170943089169
869,0.00324153900146484,0.0000435621475050211
870,0.00317716598510742,0.0000522740550510171
871,0.00320291519165039,0.0000468976072157459
872,0.00306034088134766,0.0000549346621662525
873,0.00316572189331055,0.0000558266152413021
874,0.00316619873046875,0.0000546847197983988
875,0.00318670272827148,0.0000510983913832163
876,0.00309610366821289,0.0000643182450865551
877,0.00314950942993164,0.0000486350526434992
878,0.0031275749206543,0.000045911519885498
879,0.0031886100769043,0.0000480080541277224
880,0.00317907333374023,0.0000592545719433901
881,0.00320529937744141,0.0000547377073702689
882,0.00315284729003906,0.0000572154917150411
883,0.0032806396484375,0.0000563757858955908
884,0.00317907333374023,0.0000429682934801819
885,0.00331544876098633,0.0000392095282617556
886,0.00330638885498047,0.0000444470041632563
887,0.00330972671508789,0.0000518361689320343
888,0.00336408615112305,0.0000703637817543683
889,0.00334644317626953,0.0000678450638268753
890,0.00341510772705078,0.0000472032661211695
891,0.00349569320678711,0.0000549739684501103
892,0.00353240966796875,0.0000551226642297488
893,0.0035090446472168,0.000054240095746228
894,0.00357341766357422,0.0000508206412726136
895,0.00353622436523437,0.0000586432164967005
896,0.00369358062744141,0.0000766581544379353
897,0.00368213653564453,0.0000667214297771192
898,0.00366497039794922,0.0000571498832973813
899,0.00372838973999023,0.0000407626051267614
900,0.00378704071044922,0.000072895286508171
