Wavelength (nm),Absorbance (AU),Std.Dev.
200,2.01677751541138,1.35804982103244
201,1.65818643569946,0.974153278172896
202,2.78947067260742,1.55215324227346
203,2.43491506576538,1.04524126252029
204,3.52842235565186,1.63499779004056
205,3.44929361343384,0.910818227611855
206,3.54608917236328,0.957597090377785
207,3.9960412979126,1.79752026457631
208,3.66680812835693,0.853352476541054
209,3.41530656814575,0.410212049775784
210,3.88931512832642,0.839489387449672
211,3.99999952316284,1.30311937948428
212,3.98977947235107,0.618348393972302
213,3.76443243026733,1.16730881230343
214,3.82139158248901,2.4172334554455
215,3.93039894104004,1.13297412640084
216,3.41564702987671,0.360223183856203
217,3.77418375015259,0.334965208154262
218,3.65733528137207,0.362166468328102
219,3.93932914733887,0.550240758739413
220,3.92667675018311,0.451531073192747
221,3.54878330230713,0.250586774769646
222,3.5094895362854,0.2960063875901
223,3.75745344161987,0.338437734447056
224,3.77987766265869,0.211195046765591
225,3.36909914016724,0.68292377883283
226,3.71042537689209,1.46317091982618
227,3.83832502365112,0.70467494099119
228,3.38536977767944,0.15618589993772
229,3.34172105789185,0.114107473207913
230,3.31267213821411,0.103961488195543
231,3.38757848739624,0.0786617911277315
232,3.12849760055542,0.0510364867196457
233,2.87889289855957,0.0276693306716571
234,2.76199388504028,0.0190425774949791
235,2.55767059326172,0.0121436955559217
236,2.36990642547607,0.010604671778512
237,2.23852777481079,0.00602070903209777
238,2.13225364685059,0.00442925614909265
239,2.02940511703491,0.00419658312034668
240,1.95144844055176,0.00496377578402038
241,1.87853527069092,0.00326908649988229
242,1.83640766143799,0.00247644082381205
243,1.80919504165649,0.00248535650886088
244,1.78422927856445,0.00200825606170437
245,1.77806854248047,0.00274089648621318
246,1.76114797592163,0.00275204433238579
247,1.77675104141235,0.00253924772613989
248,1.78462076187134,0.00212365947542808
249,1.79752063751221,0.0021933414597769
250,1.81803321838379,0.00413577929843795
251,1.83951473236084,0.00509104186307172
252,1.86014032363892,0.00426329583376473
253,1.89057970046997,0.00462872291555987
254,1.91631555557251,0.00576354175758143
255,1.96009731292725,0.0106301096242346
256,1.9803638458252,0.00765340460238879
257,2.00703716278076,0.00636055442876613
258,2.05897951126099,0.00589534526889651
259,2.06041717529297,0.00808456667277315
260,2.08659648895264,0.0146713078300855
261,2.15401792526245,0.0159944720255461
262,2.19060802459717,0.0167294234671386
263,2.20560312271118,0.0218267043900013
264,2.26203012466431,0.0142045476219869
265,2.25114965438843,0.01402534238156
266,2.21200895309448,0.0146662286165596
267,2.24491786956787,0.0189256231500185
268,2.29345464706421,0.0147702555989572
269,2.30612850189209,0.0142597771950071
270,2.31419897079468,0.0146753699351901
271,2.39007663726807,0.020004639087521
272,2.314208984375,0.0225450351146798
273,2.30539846420288,0.0139635845763721
274,2.21707248687744,0.0121630065498839
275,2.15101146697998,0.0111525778403491
276,2.1205620765686,0.0129880173735237
277,2.08303070068359,0.0103107872898972
278,2.06398105621338,0.00629860929360364
279,2.02291107177734,0.00755345507473855
280,1.96664571762085,0.00434444280629372
281,1.87726545333862,0.00398157919236886
282,1.72234392166138,0.0027975648796375
283,1.56691408157349,0.00268246734222858
284,1.4128851890564,0.00120007247544513
285,1.26190567016602,0.000348288336502482
286,1.13413095474243,0.000620858826533222
287,1.0248875617981,0.00051608497791042
288,0.935081005096436,0.000476615854407321
289,0.861888408660889,0.000652023161702663
290,0.804164409637451,0.000363618896325454
291,0.754092693328857,0.000269071396175685
292,0.714954376220703,0.000410616324314405
293,0.682709217071533,0.000342351812070674
294,0.656125068664551,0.000266285269831105
295,0.633338451385498,0.000185415478660808
296,0.613546371459961,0.000224070849323764
297,0.596782207489014,0.000337201760991326
298,0.580726623535156,0.000347043118916912
299,0.567450523376465,0.000340994250145461
300,0.554332256317139,0.000289603113620507
301,0.541513442993164,0.000272857538446589
302,0.529725074768066,0.000234456520009907
303,0.517721176147461,0.000283906777745661
304,0.506245136260986,0.00030414885353512
305,0.494152069091797,0.000250959536795021
306,0.483235836029053,0.00025218149719353
307,0.470657825469971,0.000278799309884945
308,0.459360599517822,0.000272924194741329
309,0.447587490081787,0.000310657853263891
310,0.435060977935791,0.000219357531650952
311,0.423304080963135,0.000272243534793536
312,0.410945892333984,0.000175216731943747
313,0.398749828338623,0.000145955796046705
314,0.386236190795898,0.000191263420168914
315,0.373604297637939,0.000178762428495178
316,0.362017154693604,0.000212786945635919
317,0.349400997161865,0.00023125373178448
318,0.337591648101807,0.000244869693303368
319,0.325705528259277,0.000203309407569291
320,0.313877105712891,0.000197408279921503
321,0.302181243896484,0.000238792126801441
322,0.291053771972656,0.000196081562169289
323,0.280237197875977,0.000245166649140476
324,0.269295215606689,0.000259840814116672
325,0.258860111236572,0.000241398310955141
326,0.248903751373291,0.000198588794392528
327,0.23930549621582,0.000308896274099254
328,0.230019092559814,0.000290311996004116
329,0.221688270568848,0.000263276300132614
330,0.212813377380371,0.000377173068063607
331,0.205096244812012,0.000285605953741533
332,0.197304248809814,0.000302992401219831
333,0.190059185028076,0.000365345647890043
334,0.183623790740967,0.000326858568233819
335,0.177221298217773,0.0003344175630986
336,0.17138671875,0.00031746899828435
337,0.165605545043945,0.000300078742054705
338,0.160212993621826,0.000372338685044478
339,0.1555495262146,0.000339898945242276
340,0.150795936584473,0.000369651841594716
341,0.146498203277588,0.00037423910554005
342,0.142403602600098,0.000382888064541299
343,0.138660907745361,0.000372651213635894
344,0.135224342346191,0.000373489838388041
345,0.131728172302246,0.000434473755642818
346,0.12863826751709,0.000433182348289713
347,0.125555992126465,0.00034099958447346
348,0.122925758361816,0.000394770485393975
349,0.11998176574707,0.000404582770822343
350,0.117479801177979,0.000334423002330302
351,0.115206718444824,0.000372367995742778
352,0.112495422363281,0.000340956907512688
353,0.110544204711914,0.000340551209645887
354,0.108283519744873,0.000371614955992357
355,0.106036186218262,0.000415924474195526
356,0.103421688079834,0.000339132808804158
357,0.100178241729736,0.000474082620122407
358,0.0966882705688477,0.000516254130644529
359,0.0929341316223145,0.000531284763271668
360,0.0897836685180664,0.000481173822273127
361,0.0896153450012207,0.000496174668673755
362,0.0913386344909668,0.000394687537831722
363,0.092646598815918,0.000334080157780684
364,0.0934872627258301,0.000379317890193011
365,0.0923418998718262,0.000379317890193011
366,0.0904946327209473,0.000337228731738099
367,0.0882735252380371,0.000386933301522436
368,0.085777759552002,0.000343788678529116
369,0.0839948654174805,0.000460734265486952
370,0.0829386711120606,0.000434724882047026
371,0.0818066596984863,0.000323940578950153
372,0.0805149078369141,0.000395111309088869
373,0.0791244506835938,0.000369523878180261
374,0.0781855583190918,0.000411757652419117
375,0.0770902633666992,0.000408555679959271
376,0.0757207870483398,0.000290036176978634
377,0.0748085975646973,0.000332989423347572
378,0.0737404823303223,0.000333044044909107
379,0.0728421211242676,0.000422106207080782
380,0.0716648101806641,0.000351883853960612
381,0.0711750984191895,0.000425821722911203
382,0.0703196525573731,0.000321714931362782
383,0.0696144104003906,0.000351055793384811
384,0.0690732002258301,0.000410518854938134
385,0.0680756568908691,0.000306430858416453
386,0.0670981407165527,0.000340738104193712
387,0.0666861534118652,0.000329480329615619
388,0.0662293434143066,0.000342585513843749
389,0.0652518272399902,0.00033915426272218
390,0.0645031929016113,0.0003911878583769
391,0.0638341903686523,0.000392821217708008
392,0.0635161399841309,0.000349268815326246
393,0.062617301940918,0.000291512515948896
394,0.0618166923522949,0.000352297154377865
395,0.0615620613098145,0.000313130651340197
396,0.0606288909912109,0.000248475629257989
397,0.0602359771728516,0.000284374103783804
398,0.0597367286682129,0.000316349741590357
399,0.0592255592346191,0.000389033667351078
400,0.0582504272460938,0.000307964458178019
401,0.057793140411377,0.000292751609282454
402,0.0574741363525391,0.000334885014126067
403,0.0566244125366211,0.000326323884602984
404,0.0562453269958496,0.000330714672877399
405,0.0555462837219238,0.000262806064718142
406,0.0548510551452637,0.00025085079116133
407,0.0546765327453613,0.000264997933790608
408,0.0540218353271484,0.000252585103163206
409,0.0533642768859863,0.000308017612012925
410,0.0531506538391113,0.000301572266958495
411,0.0527310371398926,0.000251155160281773
412,0.0522561073303223,0.00023762762477093
413,0.0519638061523438,0.000273010823594404
414,0.0512075424194336,0.000300454332834748
415,0.0508632659912109,0.000297650294622909
416,0.0508356094360352,0.000280730359772554
417,0.0504860877990723,0.000323198523338249
418,0.0497946739196777,0.000373392420655512
419,0.049870491027832,0.000250030053835662
420,0.0499176979064941,0.000327220097564809
421,0.0492258071899414,0.000271755349135876
422,0.0491847991943359,0.000226930405639673
423,0.0490946769714356,0.000279769751822062
424,0.0488972663879395,0.00034025196484088
425,0.0487074851989746,0.000279262155845766
426,0.0482730865478516,0.000238307927203661
427,0.0483198165893555,0.000317875543832759
428,0.0479836463928223,0.000264076533893379
429,0.0486502647399902,0.000295688255889265
430,0.047940731048584,0.000272544035493714
431,0.0477614402770996,0.000268767012844979
432,0.0475873947143555,0.000228149514073268
433,0.0476469993591309,0.000195589279220444
434,0.0474514961242676,0.000207515674443028
435,0.0472640991210938,0.000226737948990496
436,0.0476260185241699,0.000265792984209354
437,0.0474166870117188,0.000262355787110129
438,0.0472970008850098,0.000226010752908738
439,0.0470681190490723,0.000236080145977261
440,0.04693603515625,0.000223518149056828
441,0.0470767021179199,0.00028698467243696
442,0.0466203689575195,0.000222572139802285
443,0.047177791595459,0.000238281210426421
444,0.0465946197509766,0.00024155273357497
445,0.0464468002319336,0.000267600401417474
446,0.0465602874755859,0.000226593499231308
447,0.0463261604309082,0.000275022212517905
448,0.0461568832397461,0.000209270133750065
449,0.0459108352661133,0.000186257257320155
450,0.0456504821777344,0.000224828593677797
451,0.045166015625,0.000216292830370764
452,0.0454025268554688,0.000285236319640047
453,0.045161247253418,0.00022983353166797
454,0.0448827743530273,0.00028208777082234
455,0.0444211959838867,0.000222514924363554
456,0.0440592765808106,0.000225059056541029
457,0.0438356399536133,0.000220288445697445
458,0.0435090065002441,0.000222335008558621
459,0.0433845520019531,0.000159557436968722
460,0.0428423881530762,0.000149708643490582
461,0.0428080558776856,0.000241021255476857
462,0.0420198440551758,0.00017991363604824
463,0.0421657562255859,0.000220972739379284
464,0.041600227355957,0.000190553579010163
465,0.041203498840332,0.000202435205121255
466,0.0409069061279297,0.00020048947064511
467,0.0406069755554199,0.000161204814176742
468,0.0404672622680664,0.000202776368118068
469,0.039764404296875,0.000203228869496714
470,0.0395936965942383,0.000200580177554082
471,0.0392866134643555,0.000190486746578162
472,0.0391325950622559,0.000203787504701234
473,0.03863525390625,0.000169276519559146
474,0.0383787155151367,0.00015431853184638
475,0.0383167266845703,0.000191823712414105
476,0.0379428863525391,0.000181599223253533
477,0.0377154350280762,0.000150375419434761
478,0.0374679565429687,0.000145506450587498
479,0.0372662544250488,0.000178940410390213
480,0.0370874404907227,0.000150387515269677
481,0.0367631912231445,0.000129211432313266
482,0.0366740226745605,0.000123079420508588
483,0.0364594459533691,0.00016589273697467
484,0.0360536575317383,0.000187604973199563
485,0.036717414855957,0.000151117512111656
486,0.0358419418334961,0.000164486012743762
487,0.0356335639953613,0.000158013790688573
488,0.0359029769897461,0.000189361395516878
489,0.0353865623474121,0.000161063705963414
490,0.034996509552002,0.000172295986795597
491,0.0349187850952148,0.000171308684958198
492,0.0348405838012695,0.000180403321500028
493,0.0348262786865234,0.000179245111048615
494,0.034510612487793,0.000136175208736569
495,0.0343966484069824,0.000160809399151634
496,0.0345416069030762,0.000158470715608134
497,0.0340938568115234,0.000181674331503764
498,0.0340213775634766,0.000144732449613879
499,0.0340657234191895,0.000130994032453199
500,0.0337977409362793,0.000175558982833921
501,0.033909797668457,0.000147119525939938
502,0.0336523056030273,0.000139777556079243
503,0.0335898399353027,0.000114283851286217
504,0.0334467887878418,0.000159625823615323
505,0.0333127975463867,0.000151433151623093
506,0.0331697463989258,0.000160265529271797
507,0.0331525802612305,0.000143622212196477
508,0.032963752746582,0.000135024926557062
509,0.0328259468078613,0.000144077434295816
510,0.0327606201171875,0.000155638947204805
511,0.0327663421630859,0.00019784547751946
512,0.0324788093566895,0.00015114158403441
513,0.0324578285217285,0.000129678668391457
514,0.0323514938354492,0.000157734387695582
515,0.0322475433349609,0.000183462748053147
516,0.0319333076477051,0.000134237917617293
517,0.0317826271057129,0.000133664183391167
518,0.0317645072937012,0.000120149717660471
519,0.0316610336303711,0.0001658845131314
520,0.031494140625,0.000137765508878665
521,0.0313410758972168,0.000118095920777718
522,0.0312142372131348,0.000127400323578238
523,0.0309534072875977,0.000130611607911222
524,0.0309619903564453,0.000120829068109499
525,0.0307049751281738,0.000145268735677149
526,0.0305213928222656,0.000134214202166964
527,0.030329704284668,0.00016652475328628
528,0.0302810668945312,0.000127664188619091
529,0.0302162170410156,0.000154215359016734
530,0.0298938751220703,0.000142815714058222
531,0.0297489166259766,0.000133217754506279
532,0.0295462608337402,0.00012623132406444
533,0.0295209884643555,0.000127667750628233
534,0.0293145179748535,0.000131831461556712
535,0.0291647911071777,0.000162782456475365
536,0.0288772583007812,0.000124369515529539
537,0.0288619995117187,0.000100124449313303
538,0.0286955833435059,0.000119601557972648
539,0.0284171104431152,0.000119764940369295
540,0.028191089630127,0.000122931541781021
541,0.0280003547668457,0.000105118532520152
542,0.028104305267334,0.000126368144616153
543,0.027672290802002,0.000137815013177535
544,0.0276474952697754,0.000111787553879491
545,0.0272669792175293,0.000115420204662004
546,0.0271134376525879,0.000095684002923149
547,0.0270271301269531,0.000097554869480472
548,0.0268158912658691,0.000118047777702779
549,0.0265512466430664,0.000107737765576315
550,0.026364803314209,0.000114698913949285
551,0.0260810852050781,0.000126270945259712
552,0.0261011123657227,0.000110753578013586
553,0.0258884429931641,0.000105044964035693
554,0.0255417823791504,0.0000990353010997556
555,0.0253334045410156,0.000111624716860958
556,0.0252876281738281,0.0000923021755911415
557,0.0250606536865234,0.000114716753734158
558,0.024897575378418,0.000113437144657446
559,0.0246315002441406,0.000100575345254782
560,0.0245361328125,0.000103551641869662
561,0.0243377685546875,0.000112406205986949
562,0.0240817070007324,0.000106226648092165
563,0.0240683555603027,0.000111588045784363
564,0.0237975120544434,0.000107722991510266
565,0.0236177444458008,0.000115167773197651
566,0.0234823226928711,0.000100584387767297
567,0.023414134979248,0.0000991867137729533
568,0.0232067108154297,0.0000853418629501232
569,0.023045539855957,0.000082528652284537
570,0.0228519439697266,0.0000904935925619237
571,0.0227322578430176,0.00010435001349773
572,0.0226268768310547,0.0000754880060271715
573,0.0224065780639648,0.000104595945273354
574,0.0223379135131836,0.0000963777432253263
575,0.0221819877624512,0.0000981520383309982
576,0.0220398902893066,0.0000836016710924459
577,0.0218853950500488,0.0000821517220422434
578,0.0217890739440918,0.0000940058789107184
579,0.0212607383728027,0.0000909572347572058
580,0.021458625793457,0.0000755241419823418
581,0.0211095809936523,0.000079269785508409
582,0.0212206840515137,0.0000879761326274781
583,0.0205202102661133,0.0000812724139645544
584,0.020960807800293,0.0000827693713948861
585,0.0207571983337402,0.000099053666477957
586,0.0202999114990234,0.000091181937993537
587,0.020362377166748,0.0000971297510626409
588,0.0200991630554199,0.0000988905545581246
589,0.0198273658752441,0.0000941846939462154
590,0.019829273223877,0.0000797174187675623
591,0.0196681022644043,0.0000876654449026596
592,0.0195713043212891,0.0000590652858213962
593,0.0195755958557129,0.0000748831729014001
594,0.0191650390625,0.0000720655404531102
595,0.019129753112793,0.0000919912683500245
596,0.0188779830932617,0.0000871738663858825
597,0.0188746452331543,0.0000799040224672448
598,0.0186285972595215,0.0000848649584319958
599,0.0187745094299316,0.000099616749048764
600,0.0184435844421387,0.0000779610525728908
601,0.0184512138366699,0.0000789521963739845
602,0.0182371139526367,0.0000903678755267552
603,0.0180540084838867,0.0000855866247031577
604,0.0178265571594238,0.000080349537276422
605,0.0177783966064453,0.0000688794534806896
606,0.0177707672119141,0.0000690261933537764
607,0.017549991607666,0.0000775355401007761
608,0.0176072120666504,0.0000790500520063481
609,0.0173220634460449,0.0000797274010029864
610,0.017423152923584,0.0000596780325187172
611,0.0171146392822266,0.0000773020540757073
612,0.0170207023620605,0.0000755271525315221
613,0.0169868469238281,0.0000873093914931824
614,0.0168790817260742,0.0000711159100545287
615,0.0167961120605469,0.0000818369819224805
616,0.0166292190551758,0.0000781256612362297
617,0.0165348052978516,0.0000679656059364198
618,0.0164718627929687,0.0000858240654827275
619,0.0162348747253418,0.000093491704612702
620,0.0163216590881348,0.000091002219791571
621,0.0159449577331543,0.0000945100389700053
622,0.0160231590270996,0.0000734839942987677
623,0.0157971382141113,0.0000729763401811257
624,0.0156526565551758,0.0000773285218433765
625,0.0154204368591309,0.0000630652069754236
626,0.0154256820678711,0.0000639281975533227
627,0.0156750679016113,0.0000743162605121928
628,0.0159440040588379,0.0000729436178088739
629,0.0158567428588867,0.000075926491866724
630,0.0157561302185059,0.0000983926641219859
631,0.0156021118164062,0.0000875979839885496
632,0.0153212547302246,0.000065370183235785
633,0.0150604248046875,0.0000678802440541952
634,0.0149669647216797,0.0000819605262751213
635,0.0149259567260742,0.0000723347981216486
636,0.0148105621337891,0.0000484992852778289
637,0.014793872833252,0.0000527266339684642
638,0.0146760940551758,0.0000562132160125385
639,0.0145492553710937,0.000084693313426785
640,0.0143957138061523,0.000070223075075169
641,0.0143489837646484,0.0000906116075359835
642,0.0143694877624512,0.0000627942217049987
643,0.014164924621582,0.0000567496320602869
644,0.0142292976379395,0.0000604737810611255
645,0.0140037536621094,0.0000660879787222233
646,0.014033317565918,0.0000895768776325211
647,0.0138888359069824,0.000103012278068858
648,0.0139331817626953,0.000128140615519859
649,0.0138120651245117,0.00007613582915914
650,0.0137143135070801,0.0000680575428769955
651,0.0135946273803711,0.0000700723520455579
652,0.0137815475463867,0.0000929502281841843
653,0.0134954452514648,0.0000888249207029207
654,0.0136151313781738,0.000086112354962747
655,0.013455867767334,0.0000679890198617461
656,0.0164275169372559,0.0000635464906652744
657,0.0119771957397461,0.0000678819188483394
658,0.0129246711730957,0.0000627380721380391
659,0.013249397277832,0.0000869361890798822
660,0.0130791664123535,0.000103882671239657
661,0.0131611824035645,0.0000776146774598271
662,0.0129461288452148,0.0000717588435509023
663,0.0129585266113281,0.0000901260072428265
664,0.0128917694091797,0.0000782710438868835
665,0.0128450393676758,0.000101105220936294
666,0.0126714706420898,0.0000690673563327786
667,0.0126857757568359,0.0000638463409550325
668,0.0126185417175293,0.0000470537051105274
669,0.0126514434814453,0.0000448264972614364
670,0.0125188827514648,0.0000496494884396385
671,0.012505054473877,0.0000625366070203972
672,0.012385368347168,0.0000561555474082676
673,0.0122413635253906,0.0000523077539514567
674,0.0122685432434082,0.0000710983231339104
675,0.0121946334838867,0.0000630814290733177
676,0.0121307373046875,0.0000596456386739427
677,0.0120682716369629,0.0000502684527515853
678,0.0120077133178711,0.0000632452187789507
679,0.0119781494140625,0.0000450226200545505
680,0.0119876861572266,0.0000530812074664144
681,0.011962890625,0.0000501291717565591
682,0.0118861198425293,0.0000573563947886406
683,0.0118460655212402,0.0000681193215500968
684,0.0118265151977539,0.0000599896395061494
685,0.0117983818054199,0.000067283057882908
686,0.0118203163146973,0.0000686297725976602
687,0.0116453170776367,0.000062759813413546
688,0.0116238594055176,0.0000652169607758679
689,0.011664867401123,0.0000563192930746923
690,0.0116415023803711,0.0000445453708660405
691,0.0115256309509277,0.0000592468969777542
692,0.0114884376525879,0.0000612044222497627
693,0.0114755630493164,0.0000573117799012815
694,0.0113663673400879,0.0000557970792336521
695,0.0112786293029785,0.0000651785988801642
696,0.0112700462341309,0.0000709574708470851
697,0.0112361907958984,0.0000711382871198064
698,0.0111026763916016,0.0000705880069393023
699,0.0110054016113281,0.0000578055666377706
700,0.0109100341796875,0.0000521728277513176
701,0.0108227729797363,0.0000644859453693692
702,0.0107021331787109,0.000056056259192221
703,0.0106301307678223,0.0000446766136796245
704,0.0105452537536621,0.0000543427023311935
705,0.0104832649230957,0.0000487004600445248
706,0.0103459358215332,0.0000511195231968087
707,0.0103549957275391,0.0000549863751233556
708,0.0103297233581543,0.0000516384041074132
709,0.0102167129516602,0.0000543175921092916
710,0.0100607872009277,0.0000437041480932974
711,0.0101580619812012,0.0000528171148777838
712,0.0100436210632324,0.0000469375886492606
713,0.0100154876708984,0.0000614380206877882
714,0.010063648223877,0.0000553059162196964
715,0.0099940299987793,0.0000414114610175941
716,0.00990772247314453,0.0000346987097006614
717,0.0099644660949707,0.0000421926793636383
718,0.00994300842285156,0.0000452769373720902
719,0.0100398063659668,0.0000646655183623891
720,0.00996160507202148,0.0000507848363249561
721,0.00998878479003906,0.0000416823595479022
722,0.00996828079223633,0.0000504580690353445
723,0.00992774963378906,0.000047091139894866
724,0.0100255012512207,0.0000402009358302967
725,0.00997209548950195,0.0000602685196865298
726,0.0100021362304687,0.0000517966763739954
727,0.00991964340209961,0.0000606099231751582
728,0.00998115539550781,0.0000645018101549116
729,0.00983905792236328,0.000041134633208887
730,0.00990438461303711,0.0000406851368097335
731,0.009857177734375,0.0000594260400846848
732,0.00979137420654297,0.0000648130284264955
733,0.00972557067871094,0.0000449328894140826
734,0.0097503662109375,0.0000321900401120233
735,0.00965213775634766,0.0000423238308587567
736,0.00956249237060547,0.000052037551707312
737,0.0095219612121582,0.0000494613693798651
738,0.00942468643188477,0.0000532672140801084
739,0.00938606262207031,0.0000317428171832099
740,0.00928020477294922,0.0000414882581765507
741,0.00923728942871094,0.0000511061778048056
742,0.00911808013916016,0.0000497684150183713
743,0.00914955139160156,0.0000426489455922066
744,0.00906229019165039,0.0000435282073771532
745,0.00902891159057617,0.0000530555002048535
746,0.00896549224853516,0.0000457192103863314
747,0.00900363922119141,0.0000510928289270006
748,0.00893640518188477,0.0000405949203250072
749,0.00891923904418945,0.000060128768598923
750,0.00893831253051758,0.0000480577580450298
751,0.00898122787475586,0.0000388475987331983
752,0.00888872146606445,0.0000456781625364333
753,0.00889015197753906,0.0000351212498251348
754,0.00889348983764648,0.0000426322820718698
755,0.00888824462890625,0.0000521074154540921
756,0.00891208648681641,0.0000498665439095683
757,0.00899600982666016,0.0000346273746831879
758,0.0089726448059082,0.0000464261645665902
759,0.00890874862670898,0.0000569256499516426
760,0.00887632369995117,0.0000371657783225057
761,0.00897121429443359,0.0000425281542194484
762,0.00881528854370117,0.0000478906907884599
763,0.00896835327148438,0.0000580401127542771
764,0.00899219512939453,0.0000383609492514014
765,0.00893068313598633,0.0000311854782437205
766,0.00885248184204102,0.00004682968182307
767,0.0087733268737793,0.0000510872658651365
768,0.00877857208251953,0.0000415553392667234
769,0.00881814956665039,0.0000479665948531899
770,0.00879955291748047,0.0000445236722356975
771,0.00868320465087891,0.0000388571086389708
772,0.00858974456787109,0.0000356975596367818
773,0.00855922698974609,0.0000411332512985778
774,0.00848770141601563,0.0000495807471913696
775,0.00842094421386719,0.0000566694431943725
776,0.00842094421386719,0.000053629873275248
777,0.00829696655273438,0.0000472333621865837
778,0.00829315185546875,0.0000695316220215626
779,0.00827932357788086,0.0000546014984447466
780,0.0082392692565918,0.0000378056996210381
781,0.00825643539428711,0.0000515767226163906
782,0.00813961029052734,0.0000427933123515788
783,0.00812196731567383,0.0000424893749426755
784,0.00809049606323242,0.0000434720174761469
785,0.00803947448730469,0.0000432938205003472
786,0.0080561637878418,0.0000471152755839576
787,0.00799417495727539,0.0000405178328655297
788,0.0080265998840332,0.0000476455535766479
789,0.00801420211791992,0.0000497798352931994
790,0.00795793533325195,0.0000614287678344266
791,0.00787734985351563,0.0000553942364957234
792,0.00802040100097656,0.0000461904847725326
793,0.00791597366333008,0.0000445211187603858
794,0.00798273086547852,0.0000466118992929682
795,0.00802707672119141,0.0000557807768106801
796,0.00789785385131836,0.000054637923384147
797,0.00787830352783203,0.0000403561741717548
798,0.00790643692016602,0.000042015144563864
799,0.0079340934753418,0.0000476646385177605
800,0.00793933868408203,0.0000553100272667711
801,0.00791788101196289,0.0000408016324204864
802,0.00797891616821289,0.000046892758664974
803,0.00787496566772461,0.0000649444507211506
804,0.00792026519775391,0.0000441660362906554
805,0.00776386260986328,0.0000405073095729164
806,0.00786924362182617,0.0000431076351239392
807,0.00781726837158203,0.0000376761709279499
808,0.00788211822509766,0.0000530555002048535
809,0.00779628753662109,0.0000607354659449755
810,0.00777816772460938,0.0000601816855541222
811,0.00777006149291992,0.0000440293987788727
812,0.00775241851806641,0.0000342111969148119
813,0.00760173797607422,0.0000391609320298399
814,0.00769662857055664,0.0000429987097697901
815,0.00761270523071289,0.0000642811154525951
816,0.00754642486572266,0.0000588985582695994
817,0.00756454467773438,0.0000514376688264075
818,0.00746440887451172,0.0000445326082462713
819,0.00740528106689453,0.000063077824523212
820,0.00743341445922852,0.0000602279497507893
821,0.00736427307128906,0.0000545567145124194
822,0.00733041763305664,0.0000456233746214051
823,0.00728178024291992,0.0000526165551152562
824,0.00736141204833984,0.000041950153807963
825,0.00729274749755859,0.0000540679511834288
826,0.00720787048339844,0.0000464004453941119
827,0.00726318359375,0.000057536484317481
828,0.00725555419921875,0.000047552404800209
829,0.0072331428527832,0.0000375628452458407
830,0.00718593597412109,0.0000512472402984498
831,0.00721025466918945,0.0000572949163470169
832,0.00723648071289063,0.0000738020080705303
833,0.00719356536865234,0.0000623308430257325
834,0.00727224349975586,0.0000472754644902538
835,0.00724315643310547,0.0000540616428176883
836,0.00723743438720703,0.0000616264756490934
837,0.00725364685058594,0.0000598235877516258
838,0.00727128982543945,0.0000553182484443672
839,0.00725126266479492,0.0000502311225874313
840,0.00733327865600586,0.0000524477523399452
841,0.0073394775390625,0.0000478324953263733
842,0.00737953186035156,0.0000573464833688448
843,0.00731945037841797,0.0000529257025897899
844,0.00739908218383789,0.0000437366520381237
845,0.00737237930297852,0.000044320211892026
846,0.00734663009643555,0.0000610798433746564
847,0.00740146636962891,0.000048245459014423
848,0.00743627548217773,0.0000442213443446659
849,0.0074772834777832,0.0000465508841356609
850,0.00745153427124023,0.0000498711033448809
851,0.00732564926147461,0.0000438417992942735
852,0.00731039047241211,0.0000439182295725242
853,0.00730371475219727,0.0000526673063063767
854,0.00724887847900391,0.0000550194459079103
855,0.00716209411621094,0.000051563495554466
856,0.00724887847900391,0.0000639601998791016
857,0.00718307495117188,0.0000622998285697157
858,0.00713920593261719,0.0000523360008142282
859,0.00714445114135742,0.0000469000313031647
860,0.00708484649658203,0.0000639495342166147
861,0.00703334808349609,0.0000465203465471688
862,0.0069727897644043,0.0000505211163147451
863,0.00699567794799805,0.0000466399394614251
864,0.00692987442016602,0.000047218918469151
865,0.00679588317871094,0.0000580782960769369
866,0.0067286491394043,0.0000734220843553463
867,0.00681400299072266,0.0000535651790850936
868,0.00675201416015625,0.0000530479999069066
869,0.00672197341918945,0.0000506548312343144
870,0.00674676895141602,0.0000582883448496395
871,0.00673866271972656,0.0000736092024533089
872,0.00647687911987305,0.0000539553412883046
873,0.00667762756347656,0.000050816167033817
874,0.00658273696899414,0.0000508854735258259
875,0.00661945343017578,0.000049707843757717
876,0.0064849853515625,0.0000569026785410788
877,0.00659990310668945,0.0000472971025100718
878,0.00648117065429688,0.0000558357784116947
879,0.00657176971435547,0.0000653371315290676
880,0.00654411315917969,0.0000603881833937425
881,0.00655269622802734,0.0000459659643546857
882,0.00643491744995117,0.000052017885622276
883,0.00669145584106445,0.0000442239151288639
884,0.00651168823242188,0.0000334797756341985
885,0.00665378570556641,0.0000363813002540304
886,0.00660181045532227,0.0000367358082417475
887,0.00658941268920898,0.0000429616783937783
888,0.00668859481811523,0.0000612025647277286
889,0.00665187835693359,0.0000695920921293565
890,0.00660371780395508,0.00006152308164505
891,0.00668478012084961,0.000053043713546209
892,0.00673627853393555,0.0000528891732034106
893,0.0067896842956543,0.0000519446186479873
894,0.0068049430847168,0.0000653858334760603
895,0.00659036636352539,0.0000632883454247935
896,0.00684261322021484,0.0000938049105305958
897,0.00681304931640625,0.0000756219234817042
898,0.0068206787109375,0.0000641075594890058
899,0.00685453414916992,0.0000419081270464618
900,0.00705766677856445,0.0000731164130481062
