Wavelength (nm),Absorbance (AU),Std.Dev.
200,1.75994110107422,0.456245986711801
201,1.50085163116455,0.244612824602393
202,2.18752098083496,0.238481281305689
203,2.41698884963989,0.226554081201342
204,2.81526374816895,0.236848117238977
205,3.08727312088013,0.223741529933083
206,3.42710733413696,0.211131818770788
207,3.85676145553589,0.591213228078235
208,3.99999952316284,1.17491792432759
209,3.5402455329895,0.206999002500333
210,3.75129222869873,0.282292447435113
211,3.47615003585815,0.591277747763266
212,3.94360733032227,0.731814852620268
213,3.95409440994263,0.385394671388143
214,3.53184366226196,0.226402489293301
215,3.64313793182373,0.332042738771824
216,3.47444009780884,0.770670555729716
217,3.99999952316284,1.08109306122611
218,3.99752235412598,1.29675733652976
219,3.93727540969849,0.609525221868423
220,3.72786426544189,0.209039128341405
221,3.64369678497314,0.158359779692379
222,3.58494520187378,0.248914268350131
223,3.88099193572998,0.289194437794994
224,3.66526794433594,0.315524910646182
225,3.53709125518799,0.696638920914424
226,3.77312564849854,1.64370989732449
227,3.99999952316284,1.88968855940933
228,3.99999952316284,1.18059257499147
229,3.84559154510498,0.671579695277765
230,3.86325883865356,1.30646398516425
231,3.99999952316284,1.88461078541433
232,3.99268627166748,1.43665056424657
233,3.99999952316284,0.679676275050989
234,3.98555564880371,0.583745901350708
235,3.99999952316284,0.465712816802775
236,3.52624988555908,0.530747119523802
237,3.89180326461792,1.07656703554923
238,3.68802928924561,0.515758150421845
239,3.48258304595947,0.108151816862791
240,3.35610437393188,0.0819643747119676
241,3.21047210693359,0.0470577492310811
242,2.97053289413452,0.0271989530796639
243,2.93559217453003,0.0292617587393662
244,2.92040348052979,0.0289890649502227
245,2.86032342910767,0.020638548706877
246,2.78441286087036,0.0126125868213036
247,2.78786659240723,0.0165174259586098
248,2.77593803405762,0.0252546926613465
249,2.80166339874268,0.0269601342858952
250,2.85922288894653,0.0355298011772934
251,2.85450267791748,0.0289329817604058
252,2.85101699829102,0.054316762671318
253,2.9226279258728,0.0834046694283137
254,2.99195289611816,0.0671435545099561
255,2.95141315460205,0.0517693272863446
256,2.91674852371216,0.0380193666497484
257,2.93311643600464,0.0756757178361694
258,3.19017219543457,0.0944391984666921
259,3.06099414825439,0.0802446819694302
260,2.92495489120483,0.101233315682643
261,3.25742149353027,0.117778053003465
262,3.10625314712524,0.061196076926857
263,2.93052864074707,0.156646226131155
264,3.37828063964844,0.31601417644909
265,3.40056324005127,0.188792541964367
266,2.94044017791748,0.115612379880322
267,3.48761129379272,0.208650982609585
268,3.54372978210449,0.138134411797554
269,2.84305429458618,0.274127199372019
270,3.75886917114258,0.58153292425467
271,3.47628498077393,0.281270344316277
272,2.90425968170166,0.0847600557106199
273,3.22750663757324,0.126569432198269
274,3.31134462356567,0.121018909584621
275,3.23877811431885,0.0945476927525679
276,3.09912872314453,0.0757607343766612
277,3.16480302810669,0.0999844539002365
278,3.04282665252686,0.0728832349884582
279,3.08714199066162,0.106997118331751
280,3.19797945022583,0.0640374855888867
281,2.89966678619385,0.0427643509362475
282,2.78984642028809,0.0234311413086542
283,2.63847684860229,0.0172775855430193
284,2.42729806900024,0.0143441707241879
285,2.19790410995483,0.00885304369069419
286,2.04548406600952,0.0061874718906265
287,1.87184762954712,0.0032786873619635
288,1.71748447418213,0.00234752390928047
289,1.59425020217895,0.00249610657308088
290,1.49363994598389,0.00201022601994317
291,1.40753221511841,0.00230791391409419
292,1.33207511901855,0.00167238694891227
293,1.27343797683716,0.00120788038348011
294,1.22430944442749,0.00120975833055504
295,1.17740774154663,0.00102648676457887
296,1.14149904251099,0.00070953369140625
297,1.10761260986328,0.000645833992749437
298,1.07746315002441,0.000618451727996935
299,1.04843235015869,0.000743484399207369
300,1.02192497253418,0.000923991810812349
301,0.997682571411133,0.000825879755523776
302,0.97601842880249,0.000799340661950292
303,0.952402114868164,0.000756580555805553
304,0.927984237670898,0.000505443788911496
305,0.906481266021729,0.000550256031458656
306,0.884258270263672,0.0006670813801055
307,0.860761165618897,0.000876998818402911
308,0.836339950561523,0.000966406704941861
309,0.815954685211182,0.000410235175985754
310,0.791652679443359,0.000317463268572699
311,0.768448352813721,0.000411598587325864
312,0.744160175323486,0.000334069268064503
313,0.720179080963135,0.000340102243702509
314,0.695605754852295,0.000431583728751555
315,0.671805381774902,0.000302361385468143
316,0.647895812988281,0.000270729309507627
317,0.623200416564941,0.000301270531678973
318,0.599444389343262,0.000171082899474075
319,0.576351165771484,0.000193555949935491
320,0.552246570587158,0.000412190351959865
321,0.52918815612793,0.000478208477354579
322,0.506746292114258,0.000277936758975464
323,0.484597206115723,0.000185425288744076
324,0.462491512298584,0.000225555568824567
325,0.441213607788086,0.000328866951754094
326,0.420943260192871,0.000259483548152197
327,0.400984287261963,0.000237704160338739
328,0.381762981414795,0.000252311298092848
329,0.363509654998779,0.00025709616283805
330,0.345560073852539,0.000306169560737726
331,0.328574657440186,0.000248600048219774
332,0.311495780944824,0.000142748831144855
333,0.296149253845215,0.000163787837532261
334,0.280921936035156,0.000157875591216904
335,0.266948223114014,0.000176664145162622
336,0.253054141998291,0.000194867192693956
337,0.240386486053467,0.000153022385917374
338,0.227728843688965,0.000182109348484497
339,0.216312408447266,0.000147681017563243
340,0.20509147644043,0.000138906191719853
341,0.194523811340332,0.000131513728346571
342,0.184247970581055,0.000135146115745159
343,0.174704074859619,0.0000961959138591066
344,0.165893077850342,0.0000900275626397241
345,0.157294750213623,0.000149422841071316
346,0.148766994476318,0.000122950036348786
347,0.140748977661133,0.000140368419593613
348,0.133536338806152,0.000155638947204805
349,0.126107215881348,0.000164389221282233
350,0.119204998016357,0.0000856569969872728
351,0.112765312194824,0.0000802631817605874
352,0.106381893157959,0.0000878079799009179
353,0.100183486938477,0.000106636824109999
354,0.0946049690246582,0.000141256519361749
355,0.0891327857971191,0.000133534838611353
356,0.0831599235534668,0.000166021524001951
357,0.0774378776550293,0.000223847495182496
358,0.0722103118896484,0.000198831375030868
359,0.0674266815185547,0.000254700683328607
360,0.0631623268127441,0.000245233414648235
361,0.0600714683532715,0.000199753226647736
362,0.0570068359375,0.00022739883632948
363,0.0536441802978516,0.00018726531101878
364,0.0501770973205566,0.000146291899390974
365,0.0468053817749023,0.000146291899390974
366,0.0434956550598145,0.000183016039944299
367,0.0403518676757813,0.000166740347662156
368,0.0374903678894043,0.000169400049676319
369,0.0348243713378906,0.000181067570286649
370,0.0319914817810059,0.000153087750898904
371,0.0294227600097656,0.000163064364902431
372,0.0265989303588867,0.000205223976790483
373,0.0242071151733398,0.000129874896493051
374,0.0215859413146973,0.000184264093644386
375,0.0191488265991211,0.000190858800675812
376,0.0167374610900879,0.000175522715133558
377,0.014735221862793,0.000180660252595371
378,0.0122957229614258,0.000152238804137708
379,0.0104184150695801,0.000130447866483785
380,0.00869894027709961,0.000146599317197913
381,0.00711679458618164,0.000118836774534565
382,0.00542402267456055,0.000145852943317812
383,0.00372743606567383,0.000181799442965121
384,0.00263214111328125,0.000120623779740826
385,0.00130796432495117,0.000161689285985383
386,-0.000191211700439453,0.000206918758406923
387,-0.00105905532836914,0.000139076323731269
388,-0.00193119049072266,0.000135602964128536
389,-0.00290012359619141,0.000178935327650004
390,-0.00403738021850586,0.000190032619906678
391,-0.00466775894165039,0.000157633450597068
392,-0.00498485565185547,0.000195584629141887
393,-0.00574445724487305,0.00016026836670869
394,-0.00645875930786133,0.000162693037053518
395,-0.00682926177978516,0.00016187480302005
396,-0.00718164443969727,0.000163212102248048
397,-0.00757455825805664,0.000139933630443761
398,-0.00766277313232422,0.00011575264984664
399,-0.00799036026000977,0.0000704558165255122
400,-0.00878238677978516,0.0000920085685363185
401,-0.00870990753173828,0.000145021224252856
402,-0.00887966156005859,0.000233387312613991
403,-0.00908517837524414,0.00015392610719396
404,-0.0091700553894043,0.000145603301811212
405,-0.00921249389648438,0.00017446245925566
406,-0.00938892364501953,0.000115746756777312
407,-0.00939512252807617,0.000142308532858637
408,-0.00924825668334961,0.000185012817382812
409,-0.00936126708984375,0.000180529313806182
410,-0.00908660888671875,0.00018091681880744
411,-0.00944614410400391,0.00014901447293396
412,-0.00871896743774414,0.000146543471018884
413,-0.0089726448059082,0.000182702694409442
414,-0.0090479850769043,0.000196373560733547
415,-0.00912094116210938,0.000124406074369662
416,-0.00895929336547852,0.000150523526435462
417,-0.00854873657226563,0.000139229918026221
418,-0.00889921188354492,0.000146195504348334
419,-0.00850343704223633,0.000150825334346536
420,-0.00811147689819336,0.000150891651075146
421,-0.00816249847412109,0.000161077822347392
422,-0.00794219970703125,0.000130475751876683
423,-0.007843017578125,0.000158800376561449
424,-0.00784683227539063,0.0002235262869029
425,-0.00754499435424805,0.000162424483420226
426,-0.00707387924194336,0.000150015122239957
427,-0.00718259811401367,0.000137659840208177
428,-0.00724077224731445,0.000118955341693991
429,-0.0065159797668457,0.000100812442411448
430,-0.00640964508056641,0.000159072189878452
431,-0.00666189193725586,0.000134454550637531
432,-0.0064091682434082,0.00011348924715213
433,-0.00612783432006836,0.000135253748308358
434,-0.0057673454284668,0.0000967591776528228
435,-0.00614595413208008,0.0000906843486685041
436,-0.00551271438598633,0.000133766209345562
437,-0.00570774078369141,0.000153772405689039
438,-0.00526094436645508,0.00013864076250248
439,-0.00512456893920898,0.000124219511793758
440,-0.00493001937866211,0.000148086921262983
441,-0.00453853607177734,0.000144748158692064
442,-0.00488615036010742,0.000121454084196684
443,-0.00427722930908203,0.000140659687694692
444,-0.00442314147949219,0.000113989017264291
445,-0.00455808639526367,0.000157792037047931
446,-0.00431156158447266,0.000151352050047413
447,-0.00418329238891602,0.000165958513050068
448,-0.00400209426879883,0.000153979275815022
449,-0.00400590896606445,0.000133980210960023
450,-0.00394296646118164,0.000141324108526937
451,-0.00403356552124023,0.0000985427568663956
452,-0.00389575958251953,0.0000781489406352077
453,-0.00360870361328125,0.00010739533072035
454,-0.00375556945800781,0.000120433246059897
455,-0.00373411178588867,0.000104784897705508
456,-0.00380849838256836,0.000115640630176069
457,-0.00354433059692383,0.0000918032279060973
458,-0.00353717803955078,0.000115280252351849
459,-0.00358676910400391,0.000106903019953263
460,-0.00355434417724609,0.0000853431950742006
461,-0.00327777862548828,0.000119911035720984
462,-0.00371551513671875,0.000101001719403365
463,-0.00313854217529297,0.000119728863445679
464,-0.00334644317626953,0.000115193436005994
465,-0.00319623947143555,0.0000837714815368567
466,-0.00334262847900391,0.0000937758192256535
467,-0.00326728820800781,0.0000713298025750331
468,-0.00307512283325195,0.000104380514368769
469,-0.00325727462768555,0.000153600787949449
470,-0.00320291519165039,0.000126440095965499
471,-0.00318622589111328,0.000101441992306982
472,-0.00307369232177734,0.000138318945002105
473,-0.00299549102783203,0.000120580417356604
474,-0.00317096710205078,0.000104637239868478
475,-0.00296592712402344,0.000148739566426108
476,-0.00283336639404297,0.000128806064879499
477,-0.00283193588256836,0.0000912567161187812
478,-0.00262689590454102,0.000102851022728609
479,-0.00282430648803711,0.0000868786310321101
480,-0.00268077850341797,0.0000630525869027189
481,-0.00265884399414062,0.0000665798556354792
482,-0.00281000137329102,0.000077435770602409
483,-0.00287866592407227,0.0000904106389325072
484,-0.00290536880493164,0.000079016967340383
485,-0.00214815139770508,0.0000521859003718563
486,-0.0022430419921875,0.000059485316037534
487,-0.00292110443115234,0.0000761761351801647
488,-0.00266885757446289,0.0000691890552239428
489,-0.00250530242919922,0.000068465580352011
490,-0.00283336639404297,0.000082314856060181
491,-0.00264406204223633,0.0000981983583139121
492,-0.00264644622802734,0.0000846409461541242
493,-0.00260066986083984,0.0000606970811753472
494,-0.00261878967285156,0.0000563909082912425
495,-0.00272178649902344,0.0000648481004141415
496,-0.00242042541503906,0.0000731583826110053
497,-0.00243663787841797,0.000103254789920532
498,-0.00233554840087891,0.0000837361893288582
499,-0.00222635269165039,0.000084716130056148
500,-0.00237178802490234,0.0000957315170798777
501,-0.00201129913330078,0.0000645617086067688
502,-0.00203657150268555,0.0000702942722754302
503,-0.00202655792236328,0.0000932286764761411
504,-0.00194215774536133,0.0000879270135534056
505,-0.00188589096069336,0.0000747829052738775
506,-0.0018463134765625,0.0000999221338646409
507,-0.00168991088867187,0.0000841533154151095
508,-0.00169754028320312,0.0000732484581369052
509,-0.00166559219360352,0.0000678232764461584
510,-0.00150299072265625,0.0000788628692376756
511,-0.00129508972167969,0.0000777317698964101
512,-0.00130367279052734,0.0000607588593910083
513,-0.00124549865722656,0.0000676924049004573
514,-0.00117588043212891,0.0000832350640701098
515,-0.00110483169555664,0.0000875694271877945
516,-0.00110197067260742,0.0000771902012239241
517,-0.000971794128417969,0.0000845885464618176
518,-0.000794887542724609,0.0000696704616273074
519,-0.000749111175537109,0.0000899972503282118
520,-0.000699043273925781,0.0000784712296217768
521,-0.0006256103515625,0.0000816185882206732
522,-0.000630855560302734,0.0000679221015188958
523,-0.000558376312255859,0.000066869505017359
524,-0.000419139862060547,0.0000849921270991113
525,-0.000360965728759766,0.000111106127586033
526,-0.000339031219482422,0.0000806602154047002
527,-0.000130653381347656,0.00010435001349773
528,0.0000581741333007813,0.000073831270441975
529,-0.0000667572021484375,0.0000833592640035924
530,0.0000476837158203125,0.0000825520672084264
531,0.0000805854797363281,0.000109655959492131
532,0.000183582305908203,0.0000758980373089732
533,0.000248908996582031,0.0000902545804733989
534,0.000374794006347656,0.0000799424286326286
535,0.000509262084960938,0.0000699684400709937
536,0.000409603118896484,0.000076259664940331
537,0.000508308410644531,0.0000701566671979196
538,0.000627517700195313,0.0000674855148837729
539,0.000642299652099609,0.0000700901964016828
540,0.000586986541748047,0.0000822761755631356
541,0.000764846801757813,0.0000667776348996628
542,0.00078582763671875,0.0000674113512504269
543,0.000718116760253906,0.0000766106825724464
544,0.00100183486938477,0.0000631156620322201
545,0.000847339630126953,0.0000608607497473369
546,0.000836372375488281,0.0000737912242716878
547,0.000937938690185547,0.0000690476011653822
548,0.00110530853271484,0.0000493566769414108
549,0.00106143951416016,0.0000614676204585812
550,0.000994205474853516,0.000063970863763336
551,0.001007080078125,0.0000851418082993374
552,0.00124454498291016,0.0000665081008755523
553,0.00118350982666016,0.0000588155004925856
554,0.00104761123657227,0.0000849961398526887
555,0.00112104415893555,0.0000674905685274192
556,0.00121450424194336,0.0000583994130519371
557,0.00120687484741211,0.0000534483195083697
558,0.0013127326965332,0.000034270960309014
559,0.00130701065063477,0.0000486537494448217
560,0.00136947631835937,0.0000729264716589058
561,0.00129175186157227,0.0000767737441350551
562,0.00126981735229492,0.000057260181626427
563,0.00150728225708008,0.0000568776990938127
564,0.0013432502746582,0.0000601807410165206
565,0.00157737731933594,0.0000624784063497894
566,0.00152397155761719,0.0000723803623636101
567,0.00158596038818359,0.000072527856588894
568,0.00162601470947266,0.0000518021632519437
569,0.00162315368652344,0.0000444789652536068
570,0.00169181823730469,0.000054568174365692
571,0.0017242431640625,0.0000622121748807635
572,0.00178003311157227,0.000049638038175784
573,0.00176763534545898,0.0000507770006271396
574,0.00188779830932617,0.0000470742375495317
575,0.00183629989624023,0.0000545723409884115
576,0.00196123123168945,0.0000592977251156557
577,0.00191593170166016,0.0000601448375961238
578,0.00213384628295898,0.0000493681924631235
579,0.00170040130615234,0.0000548041290941419
580,0.00202083587646484,0.0000434929338266571
581,0.00198030471801758,0.0000400678010238371
582,0.00219821929931641,0.000037639188730204
583,0.00147581100463867,0.0000471574833157213
584,0.00211286544799805,0.0000495176505498778
585,0.00215768814086914,0.0000469944731812169
586,0.00182867050170898,0.000040377296793456
587,0.00203418731689453,0.0000479784440159045
588,0.00183725357055664,0.0000685667958062772
589,0.00183677673339844,0.0000664431131299986
590,0.00196170806884766,0.0000475536001699205
591,0.00194215774536133,0.0000674585557236504
592,0.00205278396606445,0.000054535872246029
593,0.00213527679443359,0.0000637608133333083
594,0.00188064575195312,0.0000463783890372766
595,0.00199413299560547,0.0000501257698243671
596,0.00189495086669922,0.0000559832005364959
597,0.00203752517700195,0.0000596961273050587
598,0.00191211700439453,0.0000547501675815321
599,0.00219058990478516,0.0000472141029147589
600,0.00191259384155273,0.0000551329754336082
601,0.00206851959228516,0.0000481629135006579
602,0.00192499160766602,0.0000508575387234232
603,0.0020298957824707,0.0000459399875431424
604,0.00194263458251953,0.0000506267691684333
605,0.00192165374755859,0.0000380290712831207
606,0.00202512741088867,0.0000452518211903316
607,0.00199460983276367,0.0000543531614998973
608,0.00206518173217773,0.000048663095151678
609,0.00201797485351562,0.000061495357304205
610,0.00212240219116211,0.0000492159706243487
611,0.00198841094970703,0.0000585413505406061
612,0.00205373764038086,0.0000443048184749856
613,0.00206375122070312,0.0000651646435007344
614,0.00208616256713867,0.0000728032124858319
615,0.00205373764038086,0.0000696410834005628
616,0.00205898284912109,0.0000545837975609099
617,0.00199985504150391,0.00003855089086021
618,0.00203418731689453,0.0000426922403060901
619,0.0019831657409668,0.0000572293989827085
620,0.00207090377807617,0.0000638872823641878
621,0.00191259384155273,0.0000481994868109736
622,0.00203704833984375,0.0000433174474847638
623,0.00196933746337891,0.0000486011463583115
624,0.00193214416503906,0.0000731117482761488
625,0.0019373893737793,0.0000597751087222154
626,0.00197887420654297,0.0000557389800880526
627,0.00221014022827148,0.0000529729385203676
628,0.002227783203125,0.0000531315148237414
629,0.00225257873535156,0.0000589786077639027
630,0.002288818359375,0.000046572858800923
631,0.0021357536315918,0.0000587507113154044
632,0.00215244293212891,0.0000484817013923234
633,0.00204133987426758,0.0000494372292643844
634,0.00207328796386719,0.0000416291401641861
635,0.0021214485168457,0.0000491628128768234
636,0.00213336944580078,0.0000471225138800829
637,0.00214338302612305,0.0000333317359529097
638,0.00214052200317383,0.0000416066037785716
639,0.00211620330810547,0.0000512904808407778
640,0.00207328796386719,0.0000455410691635082
641,0.00212335586547852,0.0000505649778043968
642,0.0021967887878418,0.0000514089283735268
643,0.0020594596862793,0.0000734391147925509
644,0.00206995010375977,0.0000573494569746423
645,0.0020289421081543,0.0000550535293478836
646,0.0021967887878418,0.0000752073636708922
647,0.00215530395507812,0.000109125931279709
648,0.00216913223266602,0.0000672137453009545
649,0.00231790542602539,0.0000638837232832478
650,0.0020289421081543,0.0000643306168689704
651,0.00219917297363281,0.0000701842097968067
652,0.00223922729492187,0.0000689322498502165
653,0.00210237503051758,0.0000820423239197062
654,0.00228738784790039,0.0000450365059900449
655,0.00219249725341797,0.0000471164820438665
656,0.00506258010864258,0.0000459003755611758
657,0.000889301300048828,0.0000329466527369017
658,0.00191450119018555,0.0000456308495742891
659,0.0022883415222168,0.0000718886379697739
660,0.0022578239440918,0.0000621792728908655
661,0.00239944458007812,0.000060224174413874
662,0.00228977203369141,0.0000480624890706413
663,0.00229263305664062,0.0000574445310861498
664,0.00228977203369141,0.0000698578642390253
665,0.0022435188293457,0.0000683242923894935
666,0.00226068496704102,0.0000614583720616075
667,0.00234365463256836,0.0000606886520007422
668,0.00229024887084961,0.000045624620531932
669,0.00236225128173828,0.0000519544664877268
670,0.00225114822387695,0.0000603316789367989
671,0.00239181518554687,0.0000436195244828387
672,0.00235700607299805,0.0000303012099287999
673,0.00222969055175781,0.0000343496556794066
674,0.00230598449707031,0.0000401606171112517
675,0.0023345947265625,0.0000483490305717898
676,0.00231313705444336,0.000041091080709096
677,0.00227594375610352,0.0000403618079517246
678,0.00233745574951172,0.00004470968203487
679,0.00241899490356445,0.0000495750144514946
680,0.00236892700195312,0.0000520124215012489
681,0.00246477127075195,0.0000528106570967138
682,0.00242948532104492,0.0000532255794631204
683,0.00239086151123047,0.0000603081197882171
684,0.00248432159423828,0.0000570264148708897
685,0.00256252288818359,0.0000487786000893394
686,0.00263309478759766,0.0000490540070454568
687,0.00245332717895508,0.0000498574237880693
688,0.00247621536254883,0.0000490945480327091
689,0.00253772735595703,0.0000471393989154158
690,0.00255012512207031,0.0000434890127772154
691,0.00252580642700195,0.000046040103055049
692,0.00254249572753906,0.0000619282793536281
693,0.00254535675048828,0.0000538477742909567
694,0.00259065628051758,0.0000527233996355625
695,0.00252246856689453,0.0000597665495173778
696,0.00252246856689453,0.0000590604737110584
697,0.00249052047729492,0.000047714700168953
698,0.00241327285766602,0.0000544284081831342
699,0.00244045257568359,0.0000381305778558593
700,0.00242280960083008,0.0000327606561520205
701,0.00229549407958984,0.0000386929188089495
702,0.00233840942382812,0.0000528429381101991
703,0.00222587585449219,0.000044458512802702
704,0.00221586227416992,0.0000359292922603403
705,0.00220680236816406,0.0000404096633692293
706,0.00214529037475586,0.0000480139739588271
707,0.00222492218017578,0.0000536944895182009
708,0.00214958190917969,0.0000559212289314934
709,0.00217008590698242,0.0000525170703974089
710,0.00208616256713867,0.0000361021156036522
711,0.00216341018676758,0.0000458545315499056
712,0.00209760665893555,0.000032162657483936
713,0.00209712982177734,0.0000434000406379042
714,0.00218725204467773,0.0000409656960764447
715,0.00217580795288086,0.0000416086530452937
716,0.00215721130371094,0.000044275299466337
717,0.00220966339111328,0.0000385427802384358
718,0.00220966339111328,0.0000450630036214133
719,0.00232934951782227,0.0000558897088312251
720,0.00230741500854492,0.0000614232154533573
721,0.00231313705444336,0.0000405591979929557
722,0.00238180160522461,0.0000393693980405803
723,0.00237274169921875,0.0000314441477490629
724,0.00249814987182617,0.0000312583033256514
725,0.00245237350463867,0.0000449037832908384
726,0.00250339508056641,0.0000456146522948604
727,0.0024256706237793,0.0000473331438949484
728,0.00249242782592773,0.000053275750492676
729,0.00252914428710937,0.0000377221593276764
730,0.00253868103027344,0.0000301597146639462
731,0.00250768661499023,0.0000509178586965463
732,0.00253820419311523,0.0000455073558442694
733,0.00245571136474609,0.0000454798672547214
734,0.00251388549804687,0.0000365449877019364
735,0.00250864028930664,0.0000408065082077419
736,0.0024113655090332,0.0000355955026149008
737,0.00240755081176758,0.0000287192967823087
738,0.00238656997680664,0.0000460746602893145
739,0.00233602523803711,0.0000314649301016019
740,0.0023036003112793,0.0000324932248618177
741,0.00223445892333984,0.0000618474521866624
742,0.0022130012512207,0.0000566393431002564
743,0.00224781036376953,0.0000498847791504428
744,0.0021824836730957,0.0000411394695294154
745,0.00221395492553711,0.0000507770006271396
746,0.00210905075073242,0.0000457453125679756
747,0.00219583511352539,0.0000537685436222769
748,0.0021967887878418,0.0000402602792938144
749,0.00218296051025391,0.0000531764300668046
750,0.00224590301513672,0.0000407326123604817
751,0.00230121612548828,0.0000310868937665473
752,0.00223541259765625,0.0000449645051350643
753,0.00222110748291016,0.000039077379700752
754,0.00230026245117187,0.0000336508208982509
755,0.00230932235717773,0.0000443650788512129
756,0.00229549407958984,0.0000357882091445175
757,0.00247621536254883,0.000023811440137613
758,0.00241899490356445,0.000031741026383672
759,0.0023798942565918,0.0000465606519339398
760,0.00238895416259766,0.0000368578467541777
761,0.00244522094726562,0.000046109191624143
762,0.00244283676147461,0.0000386326391230184
763,0.00255489349365234,0.0000400805671170618
764,0.00258159637451172,0.0000298085206262022
765,0.00260734558105469,0.0000322464984334852
766,0.00249671936035156,0.0000346413252571335
767,0.00244712829589844,0.000051085040470765
768,0.00244951248168945,0.0000413661387848431
769,0.00253677368164062,0.0000414265574097903
770,0.00251102447509766,0.0000382042990524492
771,0.00240612030029297,0.0000380380386413785
772,0.00239467620849609,0.0000483325681244414
773,0.00238704681396484,0.0000385339303404419
774,0.00231790542602539,0.00003365335462302
775,0.00228500366210937,0.0000356106701897867
776,0.00231838226318359,0.0000404658914040368
777,0.00220632553100586,0.0000247266619920047
778,0.00218582153320312,0.0000410848551545663
779,0.00225019454956055,0.0000474961884882358
780,0.00228357315063477,0.000042823852924362
781,0.00221872329711914,0.0000470766525418406
782,0.0021662712097168,0.0000479689649198887
783,0.00215005874633789,0.0000484089535722026
784,0.00214004516601562,0.000057378193885659
785,0.00211954116821289,0.0000395631189588385
786,0.00217294692993164,0.0000411145909633394
787,0.00216007232666016,0.0000337545476587383
788,0.00216770172119141,0.000034191252569793
789,0.00220966339111328,0.0000455884753023049
790,0.00213718414306641,0.0000508497142286998
791,0.0021672248840332,0.0000346010995207716
792,0.00220584869384766,0.0000473799567079903
793,0.00214672088623047,0.000043440624067123
794,0.00224924087524414,0.0000500883333206509
795,0.00226640701293945,0.0000330285036197186
796,0.00220775604248047,0.0000353028604864141
797,0.00220632553100586,0.000040455354600354
798,0.00225448608398437,0.0000367767903489968
799,0.00228023529052734,0.0000519303906936435
800,0.00225114822387695,0.0000557206204037368
801,0.00232934951782227,0.0000435046948545725
802,0.00231409072875977,0.0000393701199578629
803,0.00230073928833008,0.0000463195207389103
804,0.00232648849487305,0.0000441904832689596
805,0.00222873687744141,0.0000367327133969028
806,0.00235557556152344,0.0000375870500620429
807,0.00236368179321289,0.0000452568455417811
808,0.00242376327514648,0.0000494625186153028
809,0.00230216979980469,0.0000613787783229588
810,0.00235843658447266,0.0000522065919931384
811,0.00225973129272461,0.0000472778692037267
812,0.00230979919433594,0.0000453409206624654
813,0.00222635269165039,0.0000468053988648269
814,0.00225591659545898,0.0000499565157078125
815,0.00221872329711914,0.0000559090297103771
816,0.00221109390258789,0.000046515458672551
817,0.0022430419921875,0.0000399889867262507
818,0.00218629837036133,0.0000429775528905858
819,0.00212669372558594,0.0000514387739077526
820,0.00215244293212891,0.0000501212335555955
821,0.00216293334960937,0.0000381976030048905
822,0.0021519660949707,0.0000371412989664348
823,0.00212240219116211,0.0000394076414325607
824,0.00215339660644531,0.0000496094009538267
825,0.00212001800537109,0.0000523620613166844
826,0.00210857391357422,0.0000406236155009248
827,0.00218868255615234,0.0000465447782207963
828,0.00217437744140625,0.0000378109617408521
829,0.00212430953979492,0.0000327762684430429
830,0.0021204948425293,0.0000434340809175525
831,0.00214052200317383,0.0000508765360578504
832,0.00219011306762695,0.0000665303189519891
833,0.00209856033325195,0.0000670562585115316
834,0.00223731994628906,0.0000581213445823486
835,0.00219821929931641,0.0000526003476189176
836,0.00225305557250977,0.0000551731707157926
837,0.00221061706542969,0.0000404398956554718
838,0.00229072570800781,0.0000431675915137156
839,0.00230741500854492,0.0000405830163747478
840,0.00237131118774414,0.0000579175606687126
841,0.00243806838989258,0.0000461190529709112
842,0.00244474411010742,0.0000470500808088074
843,0.00237703323364258,0.0000534589536620947
844,0.00249147415161133,0.000040258867370782
845,0.00244474411010742,0.0000422761253643416
846,0.00244998931884766,0.0000515921499026373
847,0.0025172233581543,0.0000400344481440589
848,0.00252008438110352,0.0000475428407605306
849,0.0026092529296875,0.0000450087298350162
850,0.00253772735595703,0.0000457800923262283
851,0.00258111953735352,0.0000413462087599328
852,0.00247001647949219,0.000039750176277268
853,0.00254058837890625,0.0000475452319508131
854,0.00254344940185547,0.0000395846647619635
855,0.00246477127075195,0.0000503757639309015
856,0.0025177001953125,0.0000502899333063295
857,0.00248336791992187,0.0000562142272143809
858,0.00245809555053711,0.000047103209285303
859,0.00239276885986328,0.0000519686878506155
860,0.00247097015380859,0.0000565107358968205
861,0.00236034393310547,0.0000483384482135326
862,0.00233888626098633,0.0000505413648091045
863,0.00244998931884766,0.0000530426419019128
864,0.00234699249267578,0.0000676604875933808
865,0.00212669372558594,0.0000675410841667319
866,0.00229978561401367,0.0000827789855992007
867,0.00222110748291016,0.0000595817521955773
868,0.00224161148071289,0.0000510783637059114
869,0.00219583511352539,0.0000520823189579512
870,0.00218915939331055,0.0000435869331929413
871,0.00219106674194336,0.0000372810734095146
872,0.00203657150268555,0.0000627199486514726
873,0.00218343734741211,0.0000550452686337028
874,0.00213909149169922,0.0000441158132074695
875,0.00220966339111328,0.0000474363107653193
876,0.00208139419555664,0.0000626092817770762
877,0.00213336944580078,0.0000645511423305016
878,0.0021204948425293,0.0000445759862448203
879,0.0021672248840332,0.0000475739168595769
880,0.00225019454956055,0.0000547916811543022
881,0.00212764739990234,0.0000571309820586658
882,0.0021510124206543,0.0000598064819931543
883,0.00227689743041992,0.0000527180086397677
884,0.00222396850585937,0.000047661060673422
885,0.00228977203369141,0.0000448911225684251
886,0.00228261947631836,0.0000621683016913287
887,0.00228357315063477,0.0000517977737960826
888,0.00232410430908203,0.0000679589147618098
889,0.00238037109375,0.0000676688883442846
890,0.00241804122924805,0.000055540783706555
891,0.00242137908935547,0.0000640294833800564
892,0.00252485275268555,0.0000522381581397349
893,0.00255537033081055,0.000046585062469293
894,0.00254201889038086,0.0000499565157078125
895,0.00251102447509766,0.0000502695835359324
896,0.00260639190673828,0.0000777800191727803
897,0.00258779525756836,0.0000680558724048016
898,0.00253677368164062,0.0000630453742983824
899,0.00264835357666016,0.0000553921841352072
900,0.00281333923339844,0.0000696802516170455
