Wavelength (nm),Absorbance (AU),Std.Dev.
190,1.23839902877808,0.407319056117637
191,0.959064960479736,0.348220881025854
192,1.24983501434326,0.437133635664985
193,1.52738809585571,0.557458965348011
194,1.29346942901611,0.330943761375493
195,0.938402652740479,0.524296752765967
196,1.62442541122437,1.17455422893911
197,2.11471796035767,1.07999159067907
198,1.44128561019897,0.512538108339273
199,1.71110010147095,0.530445162398999
200,1.87966537475586,0.345576203749124
201,1.58044815063477,0.225406195302745
202,2.32202529907227,0.188357617098288
203,2.20921182632446,0.0954236992211415
204,2.22702360153198,0.0323714265950103
205,2.27723455429077,0.0246291792368148
206,2.26382875442505,0.0148407079691525
207,2.28262329101562,0.00748359216565996
208,2.26753854751587,0.00669135741813376
209,2.28171586990356,0.00780474754974817
210,2.31250667572021,0.00823228286137079
211,2.32407188415527,0.007565036167139
212,2.31337070465088,0.00734415519895112
213,2.34657716751099,0.00889271963213445
214,2.37112236022949,0.0108164905174227
215,2.36650276184082,0.0121981779418553
216,2.38428926467895,0.0124092143094243
217,2.40061235427856,0.0113797425873845
218,2.38349151611328,0.00581518036558524
219,2.35988521575928,0.00682257299552607
220,2.36122035980225,0.00631205035959396
221,2.32380723953247,0.00805317197170925
222,2.26290416717529,0.00740452293990729
223,2.22650575637817,0.00726767008722481
224,2.18013668060303,0.00637459540485689
225,2.12681245803833,0.00564022308988887
226,2.0870680809021,0.00561656106949577
227,2.01202535629272,0.00387807459909915
228,1.95550394058228,0.00380081703271126
229,1.89621019363403,0.0031226506939176
230,1.83179473876953,0.0020006477938542
231,1.77719354629517,0.00144044100223559
232,1.72352838516235,0.00154953735439986
233,1.66883230209351,0.00132413411784285
234,1.62181091308594,0.000832251200683907
235,1.57882213592529,0.000932363830225186
236,1.53476667404175,0.00067682663318533
237,1.49853467941284,0.000665672870574578
238,1.4663815498352,0.000498632152585326
239,1.43920183181763,0.000502310320563546
240,1.41304111480713,0.000758616598455012
241,1.39249515533447,0.000817681048503965
242,1.37728071212769,0.000826126397236165
243,1.36543321609497,0.000895292463169942
244,1.35485172271729,0.000766383978464675
245,1.35132169723511,0.000742975337593966
246,1.35299968719482,0.000789172267596654
247,1.35612010955811,0.000836906675664469
248,1.36359691619873,0.000785642435416016
249,1.37827825546265,0.000887161139275977
250,1.39811754226685,0.000899395276680091
251,1.42082357406616,0.00117457991595762
252,1.4474515914917,0.00195610296196486
253,1.47805976867676,0.00143918775910054
254,1.5080509185791,0.00111876688037423
255,1.54222536087036,0.00139035118546943
256,1.57510375976563,0.00135826794582378
257,1.6131854057312,0.00247178253900322
258,1.65384721755981,0.00418302385026378
259,1.68959808349609,0.00298300545409552
260,1.71035671234131,0.00401894605730859
261,1.73196697235107,0.00479543710337289
262,1.74715757369995,0.00364918015904113
263,1.75674247741699,0.00432241392850813
264,1.77235174179077,0.00543624207865124
265,1.78218984603882,0.00517900474501866
266,1.76825094223022,0.00374515468772605
267,1.72893953323364,0.00421175748099306
268,1.68811845779419,0.00403686541893852
269,1.63542222976685,0.00274730249068563
270,1.56743860244751,0.00371989123680206
271,1.5082221031189,0.00286970727880691
272,1.46343517303467,0.00168331486456563
273,1.39870309829712,0.00137350292690095
274,1.31420612335205,0.00116402660224915
275,1.21117830276489,0.000842296904329939
276,1.08863544464111,0.000978438244879971
277,0.968740463256836,0.000852412007882816
278,0.862189769744873,0.00073355348906167
279,0.768844604492188,0.000533785069266107
280,0.691488742828369,0.000280982946228956
281,0.629063606262207,0.000200435026796001
282,0.579140186309814,0.000179407406468473
283,0.538132667541504,0.000174733331504087
284,0.505118846893311,0.000194839187157004
285,0.478892803192139,0.000247250067491132
286,0.45668888092041,0.000199488972554315
287,0.439504146575928,0.000207590168262866
288,0.426080226898193,0.000217153128684628
289,0.414594173431397,0.00022362391795665
290,0.405837059020996,0.000192249956282565
291,0.3992919921875,0.000193527754647774
292,0.394454479217529,0.000237524262635164
293,0.391143321990967,0.000214722901460643
294,0.388669967651367,0.000197020897043102
295,0.38770055770874,0.000247969993744131
296,0.387613773345947,0.000199169578280741
297,0.387947559356689,0.000211724289728373
298,0.389641284942627,0.000236222644834436
299,0.391731262207031,0.000259336295582983
300,0.394885540008545,0.000208434025327654
301,0.398194789886475,0.000223790605807813
302,0.40158748626709,0.000248548824425352
303,0.405847072601318,0.000227230792827585
304,0.410741806030273,0.000235285196107861
305,0.416030883789063,0.000190658554071042
306,0.421849250793457,0.000241492482837631
307,0.427643299102783,0.000237834214279749
308,0.433730125427246,0.000207287644809237
309,0.439660549163818,0.000356811864058612
310,0.445959568023682,0.000257809760881092
311,0.452732086181641,0.0002305881160317
312,0.459127426147461,0.000226159596387829
313,0.465838432312012,0.000231874295233448
314,0.472181797027588,0.000252037195569679
315,0.478787899017334,0.000318772683960978
316,0.484580039978027,0.000288268471934738
317,0.491104125976563,0.000289106490921481
318,0.497678279876709,0.000219792448867951
319,0.503068447113037,0.000238875904162043
320,0.508490562438965,0.000337142417753645
321,0.513962268829346,0.000312712120543201
322,0.518822193145752,0.000219560600228666
323,0.523349761962891,0.000170136674098582
324,0.527639865875244,0.000176468406772162
325,0.531657695770264,0.000292944162052236
326,0.534618854522705,0.000371076134840845
327,0.537731647491455,0.000273603161373414
328,0.540704250335693,0.000270413339209706
329,0.542972564697266,0.000266824371553246
330,0.544159889221191,0.000248358472120924
331,0.545578479766846,0.000242964324774798
332,0.546265602111816,0.000213772006552033
333,0.546867847442627,0.000249221211323348
334,0.545781135559082,0.000238590178724875
335,0.545459270477295,0.000377674294953273
336,0.54405689239502,0.000379068446223777
337,0.54256010055542,0.000281028258228873
338,0.540651798248291,0.000270964367186398
339,0.53747034072876,0.00030152400960459
340,0.534129619598389,0.00028284121688316
341,0.530823707580566,0.000263469682540737
342,0.526069164276123,0.000281558512898004
343,0.522086620330811,0.000289244876578114
344,0.516993999481201,0.000317589298350271
345,0.511179924011231,0.000291506276049159
346,0.505268573760986,0.000249753447676693
347,0.498651027679443,0.000279704726893392
348,0.491849422454834,0.000215361537447178
349,0.485068798065186,0.000199333902111647
350,0.476974964141846,0.000145393897235435
351,0.469113349914551,0.00024594445231701
352,0.461419582366943,0.000384045487927032
353,0.452283382415772,0.000345688194555945
354,0.443687438964844,0.000263918059709028
355,0.435043811798096,0.000275761982522316
356,0.425264835357666,0.000332130687213083
357,0.415711402893066,0.000270103733771707
358,0.405430316925049,0.000279685216466809
359,0.395717144012451,0.000308731347203038
360,0.385410785675049,0.000327858749788897
361,0.375566959381104,0.000336883343111578
362,0.365238189697266,0.000339491983097499
363,0.35454273223877,0.000215509295485685
364,0.345014095306396,0.000280224503837681
365,0.336124897003174,0.000280224503837681
366,0.327974796295166,0.000325604020853961
367,0.320334911346436,0.00025045165320252
368,0.311829090118408,0.000212131984515115
369,0.30285120010376,0.000207129631081679
370,0.294164657592773,0.000231167192086962
371,0.285179138183594,0.00026574507446661
372,0.276608943939209,0.000229892881838531
373,0.267918109893799,0.000219883465377115
374,0.259838581085205,0.000232230955786973
375,0.251136302947998,0.000323524787703872
376,0.243422985076904,0.000295331240982094
377,0.235620498657227,0.000263924951869627
378,0.226941108703613,0.000244713647235982
379,0.218967437744141,0.000230469758478076
380,0.212010860443115,0.000268746708365315
381,0.20458984375,0.000310159754958515
382,0.197594165802002,0.000242664673904114
383,0.190726280212402,0.000205816970218143
384,0.184220314025879,0.000219403134835028
385,0.17753267288208,0.000214417716559573
386,0.170956611633301,0.00019441862000766
387,0.164566993713379,0.000187236168446535
388,0.158443927764893,0.000245752082751153
389,0.152728080749512,0.000255613183101669
390,0.147466659545898,0.000249695175756236
391,0.142007350921631,0.000249396318466907
392,0.136200428009033,0.000213652847118833
393,0.131025314331055,0.00021704001608834
394,0.126497745513916,0.000223794669814166
395,0.121791839599609,0.000230599948445917
396,0.11685848236084,0.000226408790424148
397,0.112488746643066,0.000225491043718631
398,0.10810661315918,0.00019842385350494
399,0.10357141494751,0.000209004857661619
400,0.0999345779418945,0.000189682920691709
401,0.0960617065429688,0.00016554423684871
402,0.0923094749450684,0.0002285279080664
403,0.0886993408203125,0.000224962048322496
404,0.0848484039306641,0.000281008839695004
405,0.0812835693359375,0.000234359520907658
406,0.0784249305725098,0.00024042808541284
407,0.0753083229064941,0.000238132304938961
408,0.0722470283508301,0.000175066137389114
409,0.0690817832946777,0.00018330404322409
410,0.0661139488220215,0.000242030441787373
411,0.0634360313415527,0.000218176840433148
412,0.0608386993408203,0.000241816154042257
413,0.0578393936157227,0.000221663126768032
414,0.0557470321655273,0.000154038330536766
415,0.0535354614257813,0.000162952776327875
416,0.0512828826904297,0.000238216314349836
417,0.0488557815551758,0.000212957845145947
418,0.0471844673156738,0.000282706130837302
419,0.0449371337890625,0.000246084934977436
420,0.0427265167236328,0.000220197596582974
421,0.0410847663879395,0.000223680849725524
422,0.0392313003540039,0.000185076712360502
423,0.0373115539550781,0.000228404501036418
424,0.0357890129089355,0.000281519747642138
425,0.0342750549316406,0.000204535907097388
426,0.0326910018920898,0.000183522226980971
427,0.0312681198120117,0.000179974287910638
428,0.0298776626586914,0.00014787180806369
429,0.0285634994506836,0.000205113153928782
430,0.0268473625183105,0.00022776250525432
431,0.0259671211242676,0.000223603581669134
432,0.0247397422790527,0.000214281939308258
433,0.0232138633728027,0.000177378295496187
434,0.0223045349121094,0.000159785278634077
435,0.0214605331420898,0.000190563124587076
436,0.0203490257263184,0.000206496367033229
437,0.0193428993225098,0.000211156501817292
438,0.0182299613952637,0.000214689013450732
439,0.0174617767333984,0.000184929229101475
440,0.0166001319885254,0.00016740176448003
441,0.0157513618469238,0.000179214664295111
442,0.0148983001708984,0.000160336450130074
443,0.0143070220947266,0.00023372609988465
444,0.013308048248291,0.000204944588406909
445,0.0127191543579102,0.000221576945982894
446,0.0123224258422852,0.000240526418465365
447,0.0114154815673828,0.000211805891465869
448,0.0108699798583984,0.000196146488305038
449,0.0104784965515137,0.000236591971366986
450,0.00970840454101563,0.000203130390710091
451,0.00925207138061523,0.000160095191029159
452,0.00890874862670898,0.000200030772407143
453,0.00839710235595703,0.000162102192840268
454,0.00787162780761719,0.000162790837027947
455,0.00762081146240234,0.000197103971753317
456,0.00709676742553711,0.000182946453983792
457,0.00684738159179688,0.000188793795879211
458,0.00635576248168945,0.000188229316532431
459,0.00595569610595703,0.000167485954894082
460,0.00571918487548828,0.000198272537153871
461,0.00551462173461914,0.000186120483024108
462,0.00512790679931641,0.000200756938147516
463,0.00475454330444336,0.000196947023438314
464,0.0044856071472168,0.0001984696841681
465,0.0044865608215332,0.00018750313915168
466,0.00409889221191406,0.000179529031750937
467,0.00404119491577148,0.000219717952771518
468,0.00370931625366211,0.000184934147105042
469,0.00343418121337891,0.000197712119715005
470,0.00357341766357422,0.000178349846368889
471,0.00336360931396484,0.000198680369051269
472,0.00275564193725586,0.000178792952260191
473,0.00286054611206055,0.000205595904043827
474,0.00273370742797852,0.000186169342522239
475,0.00262212753295898,0.000184338116100931
476,0.00234889984130859,0.000181092683332398
477,0.00224781036376953,0.000173568725585937
478,0.00206136703491211,0.000153864053914972
479,0.00198030471801758,0.000201177817437448
480,0.00198793411254883,0.000205401168998238
481,0.00200128555297852,0.000165200507009211
482,0.00176286697387695,0.000173793898183679
483,0.00160741806030273,0.000194385871091132
484,0.00155115127563477,0.000187677677975464
485,0.00138568878173828,0.000200983326881965
486,0.001373291015625,0.000188716701783452
487,0.00153064727783203,0.000153147149399916
488,0.00136852264404297,0.000178104902258293
489,0.00127267837524414,0.000201159733225318
490,0.0011754035949707,0.000181398782548683
491,0.00112819671630859,0.000158091474800889
492,0.00106906890869141,0.000226601526633639
493,0.00103855133056641,0.00021220914368515
494,0.0009918212890625,0.000194965180393571
495,0.00100374221801758,0.000196517083294766
496,0.000922679901123047,0.000219336799796525
497,0.00100040435791016,0.000180161169281486
498,0.000974655151367188,0.000190534486421666
499,0.000807285308837891,0.000216027757793698
500,0.000764369964599609,0.000185027564336065
501,0.000843048095703125,0.000161762393851936
502,0.000619411468505859,0.000208656443403673
503,0.00072479248046875,0.000175310139359681
504,0.000616073608398438,0.000168212037817921
505,0.000759601593017578,0.000214523732742348
506,0.000699520111083984,0.000203559766684811
507,0.0006256103515625,0.000190243087029074
508,0.000657081604003906,0.000178711543968089
509,0.000622272491455078,0.000201823263558992
510,0.000621318817138672,0.00018940461720014
511,0.00067901611328125,0.000183987480008799
512,0.000639915466308594,0.000164629712120362
513,0.000546455383300781,0.00020599365234375
514,0.000522136688232422,0.000204219952611148
515,0.0005645751953125,0.000174232930744383
516,0.000575065612792969,0.000167181582957525
517,0.00054168701171875,0.000180614938372194
518,0.000520229339599609,0.000185895563929224
519,0.000516414642333984,0.000202138464849841
520,0.000567913055419922,0.000180368027883042
521,0.000504970550537109,0.000166267859056072
522,0.000424385070800781,0.0001826479281597
523,0.000523090362548828,0.000197113200115415
524,0.000494480133056641,0.000194857857962198
525,0.000707626342773438,0.00019357004603926
526,0.000522613525390625,0.000181754412760176
527,0.000562667846679688,0.000185027564336065
528,0.000596523284912109,0.000153304444125127
529,0.000574111938476563,0.000178074260554452
530,0.000560283660888672,0.000204438057917975
531,0.000522136688232422,0.00020771280572633
532,0.000537872314453125,0.000203434625640463
533,0.000511646270751953,0.000205927414311122
534,0.00049591064453125,0.000198826800777114
535,0.00052642822265625,0.000190185710003432
536,0.000516414642333984,0.000198945697193366
537,0.000567436218261719,0.000197666113403803
538,0.000563621520996094,0.000210768496728987
539,0.000559806823730469,0.000204824733866254
540,0.000504016876220703,0.000225261022818674
541,0.000478744506835938,0.000230686700939039
542,0.000559329986572266,0.000195816997798318
543,0.000527381896972656,0.000191899558297527
544,0.000606060028076172,0.000192131650062033
545,0.000490665435791016,0.000195468341225582
546,0.000542640686035156,0.000225438603471258
547,0.000547409057617188,0.000213874090368534
548,0.000596523284912109,0.00019441394192876
549,0.000504493713378906,0.000200035319129402
550,0.000538825988769531,0.000207725941160258
551,0.000471115112304688,0.000170931323327398
552,0.000633716583251953,0.000199374961907677
553,0.000522136688232422,0.000241582853308692
554,0.000368595123291016,0.000250959536795021
555,0.000566482543945313,0.000205724151358807
556,0.000458717346191406,0.000198180774045724
557,0.000524997711181641,0.00021764678276313
558,0.000483036041259766,0.000190892154687494
559,0.000475406646728516,0.000203680365589495
560,0.000568866729736328,0.000194353116656341
561,0.000443935394287109,0.000178365144207093
562,0.000591754913330078,0.000183472662546821
563,0.000567436218261719,0.000205578208480336
564,0.000506877899169922,0.000209738980009327
565,0.000557899475097656,0.000216435750534694
566,0.000552654266357422,0.000208808946175671
567,0.000571250915527344,0.000188880489124062
568,0.000549793243408203,0.000208477655417372
569,0.000532627105712891,0.000213145676341232
570,0.000489234924316406,0.000230043167073833
571,0.000440597534179688,0.000218089282001471
572,0.000473976135253906,0.000203640173890219
573,0.000508308410644531,0.000226223930804773
574,0.000439167022705078,0.000217671853907579
575,0.000511646270751953,0.000181704366110891
576,0.000413417816162109,0.000199137610678403
577,0.000506401062011719,0.00020138566915612
578,0.000413417816162109,0.000205931830842801
579,0.000566482543945313,0.000191624474139866
580,0.000470161437988281,0.000211126349217456
581,0.000531673431396484,0.00022685825352965
582,0.000435829162597656,0.000202641767128713
583,0.000558853149414063,0.000200039865748319
584,0.000459671020507813,0.000202223934712284
585,0.000379562377929687,0.000208778454532955
586,0.000483036041259766,0.000216276010024648
587,0.000491619110107422,0.00020684402278239
588,0.00037384033203125,0.000203215443381406
589,0.0004730224609375,0.000208499467038509
590,0.000435352325439453,0.00021193467234447
591,0.000460624694824219,0.000213584726166284
592,0.000484943389892578,0.000227030578863014
593,0.000453472137451172,0.000218105962507977
594,0.000464916229248047,0.000200058051190697
595,0.000442981719970703,0.000201958410064322
596,0.000535488128662109,0.000201552698690416
597,0.000443935394287109,0.00020625839175687
598,0.000440120697021484,0.000188697423338026
599,0.000358104705810547,0.000208172052759434
600,0.000419139862060547,0.000212123409541507
601,0.000363349914550781,0.000208909101666911
602,0.0003509521484375,0.00021089359854225
603,0.000344753265380859,0.000216410536187809
604,0.000391006469726562,0.000198565894129027
605,0.00035858154296875,0.000217019062841515
606,0.000396728515625,0.000213729457237993
607,0.000391006469726562,0.000204993397944218
608,0.000451564788818359,0.000188673322511139
609,0.000384330749511719,0.000179300916668793
610,0.000383377075195312,0.000183646079541992
611,0.000332355499267578,0.000197987933082835
612,0.000316619873046875,0.000195933078784148
613,0.000360965728759766,0.000227706593993399
614,0.000409603118896484,0.000203854438051784
615,0.000380516052246094,0.000199520883860816
616,0.000399112701416016,0.000199953462310453
617,0.000365257263183594,0.000211147887228144
618,0.000378131866455078,0.000224784091189071
619,0.000283718109130859,0.000208739244447558
620,0.000301361083984375,0.000202273400757383
621,0.000360965728759766,0.000199794200268211
622,0.000317573547363281,0.000215247483371389
623,0.000321865081787109,0.00022777448445323
624,0.000248908996582031,0.000208917808570937
625,0.000262260437011719,0.00022598660689066
626,0.000362873077392578,0.000198515504250477
627,0.000420570373535156,0.000174566690630268
628,0.000456333160400391,0.000183378453214526
629,0.000340938568115234,0.000201263695254665
630,0.000263214111328125,0.000234375043461716
631,0.000317096710205078,0.000211569589597504
632,0.000380516052246094,0.000200897329215387
633,0.000281810760498047,0.000204940150599812
634,0.000295639038085937,0.0002182185225764
635,0.000289440155029297,0.000224358850425662
636,0.000342845916748047,0.000210790071304164
637,0.000269889831542969,0.00019337731034973
638,0.000298500061035156,0.000206795650044587
639,0.000276565551757812,0.000228834147253591
640,0.000280857086181641,0.000206461128745083
641,0.000246524810791016,0.000183497446437375
642,0.000261783599853516,0.000192070102028696
643,0.000303745269775391,0.000224569546495755
644,0.000330448150634766,0.000216607970017407
645,0.000231266021728516,0.000204789207938683
646,0.000266075134277344,0.000191534274454242
647,0.000258445739746094,0.00021372520184069
648,0.000257015228271484,0.00020435796465029
649,0.00029754638671875,0.000209148409452405
650,0.00043487548828125,0.000214739843460153
651,0.000222682952880859,0.000226083175489992
652,0.000346183776855469,0.000207484992743378
653,0.000307559967041016,0.00019982151134759
654,0.000310897827148437,0.000219166724617209
655,0.000282764434814453,0.000219589594695644
656,0.0001983642578125,0.000243364531062875
657,0.000568389892578125,0.000206421478480466
658,0.000388622283935547,0.000214001626659879
659,0.000369071960449219,0.000236438155421613
660,0.000237941741943359,0.000225252947644438
661,0.000276565551757812,0.000213312024812713
662,0.000284194946289062,0.000207629595347187
663,0.000271797180175781,0.000228969239394725
664,0.000337123870849609,0.000238613049350594
665,0.000169754028320312,0.000212226286357743
666,0.000249385833740234,0.000213980375890072
667,0.000319480895996094,0.000204309003307662
668,0.000299930572509766,0.000224427753596084
669,0.000347614288330078,0.000221219553640716
670,0.000319004058837891,0.000195570678242825
671,0.000284194946289062,0.000222715114092627
672,0.000226497650146484,0.000243487826450872
673,0.000263214111328125,0.000227618705692649
674,0.000236034393310547,0.000208582330397399
675,0.000288009643554687,0.000213064587729388
676,0.000200748443603516,0.00022821328752359
677,0.0002593994140625,0.00022276819545783
678,0.00028228759765625,0.000213004818472832
679,0.000205039978027344,0.000214197034819899
680,0.000220298767089844,0.00021512491349217
681,0.000232219696044922,0.000204864693170916
682,0.000194549560546875,0.000206152536788771
683,0.0002288818359375,0.000213081661580503
684,0.000187873840332031,0.000214904957960558
685,0.000271320343017578,0.000233371724361728
686,0.000202655792236328,0.000219676555135207
687,0.000300884246826172,0.000223448965399105
688,0.000257968902587891,0.000235470666960632
689,0.000252246856689453,0.000232164368510482
690,0.000198841094970703,0.000205600327696729
691,0.000202178955078125,0.000196803814418578
692,0.000327110290527344,0.000222723281279931
693,0.000187397003173828,0.000230394767245863
694,0.000260353088378906,0.00021926629682904
695,0.000166416168212891,0.000210405713096149
696,0.000223636627197266,0.000220564892033691
697,0.000256538391113281,0.000227126703591983
698,0.000219345092773437,0.000208791522925094
699,0.00018310546875,0.000194843855026033
700,0.000245571136474609,0.000207616453817673
701,0.000205516815185547,0.000226886315410048
702,0.000205516815185547,0.000217065157314684
703,0.000226497650146484,0.000212722822922248
704,0.000160694122314453,0.000197960369038835
705,0.000201225280761719,0.000202345329781573
706,0.000240802764892578,0.000212825409990667
707,0.000218391418457031,0.000212838229897512
708,0.000235080718994141,0.000209017911898393
709,0.000226020812988281,0.000226918381881187
710,0.000215053558349609,0.000216612168782055
711,0.000240802764892578,0.000219258000871835
712,0.00018310546875,0.000221634403563066
713,0.000236988067626953,0.000218655705351585
714,0.000162124633789062,0.000231988015817006
715,0.000166416168212891,0.000230051074103484
716,0.000137805938720703,0.000218110132435279
717,0.000119686126708984,0.000199643922548363
718,0.00025177001953125,0.000228009947464456
719,0.000147819519042969,0.000224314254742951
720,0.000172615051269531,0.000203287039083062
721,0.000179290771484375,0.00021394211918513
722,0.000184059143066406,0.000230714297164182
723,0.000207424163818359,0.000220346239267762
724,0.000184535980224609,0.000219771758040821
725,0.000161647796630859,0.00021079870051597
726,0.000203132629394531,0.000217868144724118
727,0.000101089477539062,0.000216645755969725
728,0.0000925064086914063,0.000207384149484569
729,0.000181198120117187,0.000225700682866273
730,0.000185966491699219,0.000230477650872595
731,0.000207901000976562,0.000219054651777906
732,0.000152111053466797,0.00023119473095898
733,0.000165462493896484,0.000213593242473477
734,0.000178813934326172,0.000212089106180128
735,0.0000901222229003906,0.000221404483776091
736,0.000184059143066406,0.000216099317345596
737,0.000195503234863281,0.000210267345164639
738,0.000156402587890625,0.000216565977893635
739,0.000123023986816406,0.000217190819792538
740,0.000155925750732422,0.000216641557856036
741,0.000154018402099609,0.000213137142150668
742,0.000216960906982422,0.000222964078718766
743,0.00014495849609375,0.00023258706942015
744,0.000188350677490234,0.00021958545286333
745,0.0000739097595214844,0.00022594635779299
746,0.000123023986816406,0.000224176357453602
747,0.000154018402099609,0.00023562897437376
748,0.000119686126708984,0.000230035259772393
749,0.000166416168212891,0.000225042891408557
750,0.00018310546875,0.000237213905997711
751,0.000195980072021484,0.000232766875594482
752,0.0001373291015625,0.00024018964990786
753,0.000173568725585937,0.000250233673248951
754,0.000186443328857422,0.000231744821171243
755,0.000134944915771484,0.000236930014947091
756,0.000110626220703125,0.00021549663448074
757,0.0000982284545898438,0.000236303484337516
758,0.000174522399902344,0.000233776681107281
759,0.000130176544189453,0.000219974444227339
760,0.000149726867675781,0.000214544929692426
761,0.000181198120117187,0.00023119473095898
762,0.000184059143066406,0.000236534302109152
763,0.0000739097595214844,0.000217416829224295
764,0.000225067138671875,0.000234452640816333
765,0.000197410583496094,0.000235717734421303
766,0.00014495849609375,0.000240329712126469
767,0.000141620635986328,0.00022598660689066
768,0.000206947326660156,0.000217245250959373
769,0.000137805938720703,0.000235389541444412
770,0.00009918212890625,0.000208843788316106
771,0.000152587890625,0.000206817639055233
772,0.0000910758972167969,0.000198446770159577
773,0.000124454498291016,0.00022258848436921
774,0.000134944915771484,0.000217592452040265
775,0.000159263610839844,0.000229393863159366
776,0.000147819519042969,0.000232876254859348
777,0.000115394592285156,0.000232997293436697
778,0.000203609466552734,0.000230741890088877
779,0.0000634193420410156,0.000220337983971532
780,0.0000805854797363281,0.000210280321025997
781,0.000132560729980469,0.000231878217561314
782,0.00012969970703125,0.00023529292697895
783,0.000134944915771484,0.000221761578083909
784,0.000114917755126953,0.000224439910783255
785,0.0000729560852050781,0.000225293320621237
786,0.000111579895019531,0.000232884065698199
787,0.000113010406494141,0.000222441340032051
788,0.000106334686279297,0.00023903956604208
789,0.0000715255737304688,0.00023589515432343
790,0.0000562667846679688,0.000228097685015921
791,0.000072479248046875,0.000222294098294864
792,0.000107288360595703,0.000231477797769571
793,0.000101089477539062,0.00023541272301605
794,0.000143527984619141,0.000218859425119352
795,0.000142574310302734,0.000232981679089176
796,0.0000762939453125,0.000219995115991571
797,0.000195980072021484,0.000223632051953851
798,0.000127315521240234,0.000236845549284657
799,0.0000987052917480469,0.000219224813903639
800,0.0000858306884765625,0.000234917686678074
801,0.000127315521240234,0.000232950447254311
802,0.000102996826171875,0.000243349581922466
803,0.00012969970703125,0.000233932247041055
804,0.0000667572021484375,0.000231037321762206
805,0.0000963211059570313,0.000247176487729513
806,0.000122547149658203,0.000246313971519824
807,0.0000543594360351563,0.000247793878669538
808,0.0000872611999511719,0.000235265867818723
809,0.0000772476196289063,0.000238159038420478
810,0.000116825103759766,0.000241228708923369
811,0.0000796318054199219,0.000231854682598801
812,0.0000548362731933594,0.000228937460180221
813,0.000104427337646484,0.000239005320503444
814,0.0000128746032714844,0.000238304110704582
815,0.000003814697265625,0.000237091184015302
816,0.000163555145263672,0.000245900072697572
817,0.0000705718994140625,0.000239031956346382
818,0.000129222869873047,0.000251914474198899
819,0.0000867843627929688,0.000237899214588711
820,0.0000491142272949219,0.000239157485362879
821,0.0000901222229003906,0.000247595599472815
822,0.0001373291015625,0.000246830369043935
823,0.0000963211059570313,0.000239347555398573
824,0.0000152587890625,0.00022517217997443
825,0.000130176544189453,0.000230737948444515
826,0.000111579895019531,0.000240064660607394
827,0.00000476837158203125,0.00024313645680119
828,0.0000853538513183594,0.000242405927510334
829,0.0000448226928710938,0.000227874286620987
830,0.000153541564941406,0.000233324953356309
831,0.0000271797180175781,0.000226075129682218
832,0.0000815391540527344,0.000235273599324922
833,0.000145435333251953,0.000242833273017001
834,0.0000805854797363281,0.000225704712480057
835,0.000112533569335937,0.000216742290141946
836,0.0000371932983398437,0.000240926899404263
837,0.0000286102294921875,0.000264736967042047
838,0.00005340576171875,0.000238559681146541
839,0.0000829696655273438,0.000242934376320119
840,0.000072479248046875,0.000251104457715337
841,0.0000367164611816406,0.000255833689568804
842,0.0000638961791992188,0.000256557889289553
843,-0.00000810623168945313,0.000230469758478076
844,0.0000853538513183594,0.000231988015817006
845,0.000087738037109375,0.000221794385477843
846,0.0000844001770019531,0.000223180166765096
847,0.0000295639038085937,0.000235968397528021
848,0.0000586509704589844,0.000226641659380467
849,0.000026702880859375,0.000231587785868663
850,0.0000591278076171875,0.000242777086322199
851,0.0000414848327636719,0.000238334640986009
852,0.000034332275390625,0.000230355288370464
853,0.0000634193420410156,0.000242312110628125
854,0.0000100135803222656,0.000236968398477232
855,-0.0000238418579101562,0.000254371954159521
856,0.0001068115234375,0.000238197223903643
857,0.0000548362731933594,0.000249979123067136
858,-0.0000100135803222656,0.000258289092616099
859,0.0000910758972167969,0.000241266408567109
860,0.0000762939453125,0.000239560254804239
861,0.000104904174804687,0.000253713218048806
862,0.0000166893005371094,0.000259588677418257
863,0.0000362396240234375,0.000225712771491806
864,0.0000629425048828125,0.000228452279407621
865,0.00000667572021484375,0.000256387673388055
866,0.0000119209289550781,0.000221281214191469
867,-0.0000510215759277344,0.000199137610678403
868,0.00000810623168945313,0.00021320540611019
869,0.0000147819519042969,0.000208486380339656
870,0.00000858306884765625,0.000209882029687322
871,-0.0000476837158203125,0.000249928181919856
872,0.0000514984130859375,0.000242011652208676
873,-0.0000057220458984375,0.000223522218016899
874,0.00000524520874023438,0.000217713632732537
875,-0.0000219345092773437,0.000235478391742622
876,-0.0000329017639160156,0.000244207671019267
877,0.0000505447387695313,0.000249389024790667
878,-0.0000123977661132812,0.000259917807100039
879,-0.0000300407409667969,0.000261605919885253
880,0.0000205039978027344,0.000245729876572036
881,0.0000920295715332031,0.000226577443573439
882,0.0000457763671875,0.000242792070712185
883,-0.00002288818359375,0.000239229729765686
884,-0.0000591278076171875,0.000215981441920211
885,-0.0000462532043457031,0.000257209340046124
886,-0.0000157356262207031,0.000248292546938035
887,-0.0000581741333007813,0.00023753574953802
888,-0.0000300407409667969,0.000229385933475379
889,-0.000131130218505859,0.000243723035354054
890,0.0000100135803222656,0.000263151907827002
891,-0.000049591064453125,0.000269206567186007
892,-0.0000171661376953125,0.000241718345665563
893,0.0000615119934082031,0.000233776681107281
894,0.0000448226928710938,0.000232590979728057
895,-0.000049591064453125,0.000250625900663211
896,-0.0000128746032714844,0.000245796489090817
897,-0.0000095367431640625,0.000245752082751153
898,-0.000011444091796875,0.000261675442307986
899,0.00000238418579101562,0.000236761053488686
900,0.00000238418579101562,0.000268604534031432
901,-0.0000166893005371094,0.000273144045104111
902,0.0000329017639160156,0.000248994849003864
903,-0.0000295639038085937,0.000262660674821503
904,-0.0000162124633789062,0.000250676700023945
905,-0.0000281333923339844,0.000238853058705163
906,-0.0000934600830078125,0.000243696912242172
907,-0.000138282775878906,0.000252268038547207
908,-0.0000138282775878906,0.000268773780664
909,-0.0000557899475097656,0.000245966639123958
910,-0.0000300407409667969,0.00024166942663285
911,-0.000000476837158203125,0.000237604659293232
912,-0.0000486373901367188,0.000260749277900701
913,-0.0000820159912109375,0.000280710920631183
914,0.0000262260437011719,0.000227206776467233
915,0.0000510215759277344,0.000234933172352888
916,-0.0000252723693847656,0.000237114199225181
917,-0.0000791549682617188,0.000252937730086903
918,-0.0000414848327636719,0.000250255479788323
919,-0.0000395774841308594,0.000233079251599752
920,-0.0000605583190917969,0.00023673032026727
921,0.0000209808349609375,0.000240284295487552
922,0.0000290870666503906,0.000247602945978253
923,-0.000108242034912109,0.000256423144352018
924,-0.0000739097595214844,0.000234289656687621
925,0.0000276565551757812,0.00023446815720555
926,-0.0000858306884765625,0.00021645255846751
927,0.0000214576721191406,0.000269989224521455
928,-0.00002288818359375,0.000267192245602989
929,-0.0000510215759277344,0.000242222012235411
930,-0.0000104904174804687,0.000231591713048963
931,-0.0000681877136230469,0.000249345258252884
932,0.0000576972961425781,0.00025135063151692
933,-0.0000257492065429687,0.00027325057554697
934,-0.000174999237060547,0.000285325585507326
935,-0.0000476837158203125,0.000260470088058981
936,-0.0000243186950683594,0.000252729091946513
937,-0.000145912170410156,0.000236318879202794
938,0.0000438690185546875,0.0002760981852961
939,-0.0000357627868652344,0.000273203973589516
940,-0.0000963211059570313,0.000274054871280203
941,-0.000188350677490234,0.000236664998920381
942,-0.000072479248046875,0.000262653749485668
943,-0.0000896453857421875,0.000287731617506638
944,-0.000177860260009766,0.000269409196539923
945,-0.000140666961669922,0.000250342686950845
946,-0.000165462493896484,0.000264289979182263
947,-0.000203609466552734,0.000253411921390417
948,-0.000191211700439453,0.000235764030745901
949,-0.0000147819519042969,0.000249316076292663
950,0.0000772476196289063,0.000225962458292373
951,0.00000858306884765625,0.00022524890994876
952,-0.0000929832458496094,0.00028788330136421
953,-0.000188827514648437,0.000286273904831291
954,-0.0000166893005371094,0.000278119947857726
955,-0.000161647796630859,0.000267559613854466
956,-0.0000810623168945313,0.000284910900322605
957,0.00000715255737304688,0.000257626251295518
958,-0.000299930572509766,0.000285695104116101
959,-0.000105381011962891,0.000280133612491924
960,-0.0000057220458984375,0.000279704726893392
961,-0.000199794769287109,0.00026074230179802
962,-0.0000891685485839844,0.000281280577176297
963,-0.000188827514648437,0.000280360785606731
964,-0.00012969970703125,0.000269625166670535
965,-0.000257492065429687,0.00024984811056097
966,-0.000107288360595703,0.000294436809813236
967,-0.0000681877136230469,0.000248292546938035
968,-0.000179290771484375,0.000309061112984148
969,0.0000152587890625,0.000330015411076369
970,-0.000147819519042969,0.000298687385549357
971,-0.0000324249267578125,0.000248087334336877
972,-0.000104904174804687,0.000241650608983368
973,-0.0000772476196289063,0.000274737664490217
974,-0.000182151794433594,0.000263414444910791
975,-0.00016021728515625,0.000249418198215905
976,-0.000189781188964844,0.000297772492794829
977,-0.000216484069824219,0.000269355176950119
978,-0.0000171661376953125,0.000302980394150092
979,-0.0000987052917480469,0.000318955230967471
980,-0.000222206115722656,0.000279691720093558
981,-0.000135421752929687,0.000240624711333371
982,-0.0000205039978027344,0.000256536618478316
983,0.0000772476196289063,0.000303723934867545
984,-0.000225543975830078,0.000268577444672881
985,-0.000104427337646484,0.000288892491791481
986,-0.000279903411865234,0.000259434473249034
987,-0.000003814697265625,0.00029654824515385
988,-0.000107288360595703,0.000272036330099234
989,-0.000154018402099609,0.0002516182528749
990,0.000151157379150391,0.000377433403566904
991,-0.00026702880859375,0.000264152292286134
992,-0.0000400543212890625,0.000289910717946474
993,-0.000225067138671875,0.000317721003301923
994,-0.0000896453857421875,0.000285707837613048
995,-0.000105857849121094,0.0002381437625128
996,-0.000290393829345703,0.000255862128173779
997,-0.0000200271606445312,0.000359999106976441
998,0.000180244445800781,0.000416955310834745
999,-0.0000395774841308594,0.000339325845235008
1000,-0.0000538825988769531,0.000263966301054183
1001,-0.0000667572021484375,0.000304244527917334
1002,-0.000568389892578125,0.000311721693081216
1003,-0.000132083892822266,0.000315486072883134
1004,0.000216484069824219,0.000346256017372283
1005,-0.000397682189941406,0.000295792816529671
1006,0.000133991241455078,0.00032835215840157
1007,-0.0002593994140625,0.000370173080798586
1008,0.0000338554382324219,0.000283637556293284
1009,-0.000379085540771484,0.000307053511239635
1010,-0.000111579895019531,0.000315457243202921
1011,0.00003814697265625,0.000388528367846498
1012,-0.000210285186767578,0.000393838627383301
1013,-0.000167369842529297,0.00041316006775384
1014,-0.0000329017639160156,0.00048105283693073
1015,-0.0000100135803222656,0.000491518968729943
1016,0.000158309936523437,0.000400724823969053
1017,-0.000211238861083984,0.000401577295873113
1018,0.000349521636962891,0.000426760465648618
1019,-0.000286579132080078,0.000390275411338347
1020,0.000396728515625,0.000349425020174017
1021,0.000277042388916016,0.000351356190837518
1022,-0.000195503234863281,0.000353204712953818
1023,0.000107765197753906,0.000350641029778991
1024,-0.000278472900390625,0.000444882680064101
1025,-0.000384330749511719,0.000471736328503328
1026,-0.000123023986816406,0.000446074981177703
1027,0.00002288818359375,0.000561136651548802
1028,0.000309467315673828,0.000524448042928336
1029,-0.000188827514648437,0.000385001050019535
1030,0.0000309944152832031,0.000392589620521541
1031,0.000388145446777344,0.000535866534877261
1032,0.0004425048828125,0.000474473818603776
1033,-0.000462055206298828,0.000656083571243094
1034,0.000347614288330078,0.000618992671978352
1035,0.00028228759765625,0.000437685604085667
1036,0.000339508056640625,0.000455141504626216
1037,-0.000148296356201172,0.000612897332107966
1038,0.0000214576721191406,0.000522404649857552
1039,-0.000134468078613281,0.000565913907185446
1040,-0.000412940979003906,0.00067850157712758
1041,0.000533103942871094,0.000646306991011447
1042,-0.000346660614013672,0.00077013437845468
1043,0.0000958442687988281,0.000600218098118241
1044,-0.000163555145263672,0.000741858095552535
1045,-0.000466823577880859,0.000740915953448778
1046,0.000289440155029297,0.000868260629258734
1047,0.000720977783203125,0.000899621763487773
1048,0.000386238098144531,0.000683565650089923
1049,-0.000236034393310547,0.000756080311760043
1050,-0.000512123107910156,0.000713440180293916
1051,0.00123167037963867,0.0010233063176944
1052,0.000926971435546875,0.000956599517677393
1053,0.000387191772460937,0.0010194024574662
1054,0.000266075134277344,0.000727617880372963
1055,-0.00011444091796875,0.000753960222081326
1056,0.000555515289306641,0.00115556996716592
1057,-0.00113821029663086,0.000864060508706763
1058,-0.0000157356262207031,0.000965879539741162
1059,0.00113344192504883,0.000895747454287028
1060,0.000313758850097656,0.000599186826051998
1061,0.000460624694824219,0.000829326064556958
1062,0.0009307861328125,0.00125686025855327
1063,0.000513553619384766,0.00126792641220579
1064,-0.0000596046447753906,0.00137519704154661
1065,0.0015721321105957,0.00121499155899391
1066,-0.00110197067260742,0.00117932771097197
1067,-0.000825881958007813,0.00143005872555422
1068,-0.00244522094726562,0.00147478386812869
1069,0.000555992126464844,0.00131263283925839
1070,0.00102615356445312,0.000986053126306367
1071,0.0000553131103515625,0.00125500641299458
1072,-0.00134801864624023,0.00164203997175271
1073,-0.000087738037109375,0.00126687009372194
1074,-0.000122547149658203,0.00122814295472908
1075,0.00166797637939453,0.00123824391624657
1076,-0.00194501876831055,0.00174648156222375
1077,0.000815391540527344,0.0013539112443166
1078,-0.0000996589660644531,0.0016971244731369
1079,-0.00211334228515625,0.00158856379514405
1080,0.000307559967041016,0.00201877873639419
1081,0.00239944458007812,0.00248933476672941
1082,0.000480175018310547,0.00231461295046829
1083,0.00363302230834961,0.00183578515942578
1084,0.000749588012695313,0.00173114979992801
1085,-0.00224208831787109,0.00190820293367945
1086,0.00100946426391602,0.00176002707322726
1087,-0.000435829162597656,0.0017841694314262
1088,-0.000165939331054687,0.00214140129979482
1089,0.00369691848754883,0.0027384319182342
1090,-0.000403881072998047,0.00215737909664501
1091,-0.0035853385925293,0.00187490721314046
1092,0.00143289566040039,0.00191651241033332
1093,-0.000501155853271484,0.00202528453538021
1094,-0.00104761123657227,0.00236722790019494
1095,0.00527286529541016,0.00203136838054488
1096,-0.00239658355712891,0.00306629533020395
1097,0.00263738632202148,0.00277592560821944
1098,-0.00136947631835937,0.00228285967525482
1099,0.00247573852539062,0.00278078610055364
1100,-0.00183868408203125,0.00317375476458937
