Wavelength (nm),Absorbance (AU),Std.Dev.
190,1.17393112182617,0.680248511287879
191,1.30304670333862,0.576181806058481
192,1.24526023864746,0.276600015110945
193,0.922124862670898,0.213574910871364
194,1.09014892578125,0.319292631333434
195,1.28050565719604,0.20053087349729
196,1.26153612136841,0.321667294938128
197,1.54995250701904,0.893276617422831
198,2.03249025344849,1.57165287943537
199,1.69380521774292,0.748472565723437
200,1.38281917572021,0.184443677622313
201,1.49261236190796,0.1295850969953
202,2.25945997238159,0.184851699361504
203,2.13345575332642,0.0910169871478006
204,2.16628408432007,0.0376190520999945
205,2.20168972015381,0.0206194066641807
206,2.17906093597412,0.00862001393810482
207,2.18987464904785,0.00735745834693953
208,2.19645404815674,0.00423722038528057
209,2.20158958435059,0.00813555362177478
210,2.21603202819824,0.00597677242932599
211,2.24151277542114,0.00344395973394223
212,2.25267791748047,0.00391434783809179
213,2.26425170898437,0.00676885111232202
214,2.28115034103394,0.0048221636267343
215,2.28657293319702,0.00664064182952543
216,2.28801202774048,0.00911837453559413
217,2.29800748825073,0.0068488679935507
218,2.27596664428711,0.0082873066760223
219,2.27157497406006,0.00877654986320348
220,2.27405977249146,0.00634119732239882
221,2.21955060958862,0.00759072230069777
222,2.16884613037109,0.00552199532917997
223,2.14114093780518,0.00618551485410496
224,2.09623861312866,0.00322592598314861
225,2.04359340667725,0.00319881870810152
226,1.99920654296875,0.00483498996332186
227,1.9307017326355,0.00259255762153899
228,1.87518548965454,0.00176705737372674
229,1.8191442489624,0.00200053141284169
230,1.7568998336792,0.00158287414419444
231,1.70127820968628,0.00185969523869761
232,1.65004968643188,0.00254716680177383
233,1.60009241104126,0.00151485273998912
234,1.55340528488159,0.000982267879603948
235,1.51124572753906,0.00123840843413958
236,1.47073650360107,0.00100012021534265
237,1.43563556671143,0.00114540057155942
238,1.40490627288818,0.000904799230170684
239,1.37980604171753,0.000723928639462761
240,1.3534517288208,0.000780606750081393
241,1.33442544937134,0.000808103797657325
242,1.3199896812439,0.000733573326358726
243,1.30816173553467,0.000684522950932555
244,1.29782199859619,0.000839025298240449
245,1.29353141784668,0.000888423256104104
246,1.29515171051025,0.000907320752710512
247,1.29879713058472,0.00103641891843845
248,1.3033881187439,0.00125968212028354
249,1.31886196136475,0.00123511391264942
250,1.3356671333313,0.00113613955499184
251,1.35914897918701,0.00156329998756248
252,1.38275480270386,0.0012054443359375
253,1.41148948669434,0.00146297494571445
254,1.43831491470337,0.00178211290179961
255,1.46950626373291,0.00228876749617964
256,1.50335454940796,0.0027763449513353
257,1.54030609130859,0.00229354370616125
258,1.5731520652771,0.00292682507870101
259,1.60678339004517,0.00345159070205046
260,1.62833499908447,0.00243376489714073
261,1.64959192276001,0.00291758261785086
262,1.66461324691772,0.00331947933290193
263,1.6713137626648,0.00214357476018662
264,1.68203020095825,0.00349642757335113
265,1.69243764877319,0.00473976403894483
266,1.67777252197266,0.0032823070458371
267,1.64607524871826,0.00316832138055674
268,1.60289096832275,0.00353108292581072
269,1.5414834022522,0.00292658641721909
270,1.48327493667603,0.00191857657153574
271,1.42492532730103,0.00227979789856148
272,1.38013029098511,0.00155904955162579
273,1.32084083557129,0.00166743729453095
274,1.23807859420776,0.00123084149694216
275,1.13859939575195,0.00140823826369043
276,1.02773761749268,0.00123230664429413
277,0.916547775268555,0.000826496221800195
278,0.817727565765381,0.000472860923995069
279,0.732491016387939,0.000411660453276661
280,0.661725521087647,0.000429479686920306
281,0.604634284973145,0.000288262161812441
282,0.557924747467041,0.000364957093485305
283,0.520360946655273,0.000369494341868097
284,0.489712715148926,0.000279327283801092
285,0.4649977684021,0.000297167120596045
286,0.444407463073731,0.000342840279544756
287,0.42815113067627,0.000306940934329806
288,0.41520881652832,0.000206984679195624
289,0.404662609100342,0.000246874581427913
290,0.396263122558594,0.000305265175124275
291,0.390000820159912,0.000291780705399724
292,0.38521146774292,0.00033053862033744
293,0.381862163543701,0.000277117474438006
294,0.379422664642334,0.000243442998989348
295,0.378028869628906,0.00025114067487874
296,0.378060817718506,0.000295589812087497
297,0.378707408905029,0.000297265042048771
298,0.380041122436523,0.000282577417421945
299,0.381715774536133,0.00022029670285005
300,0.384446620941162,0.00027671020933977
301,0.387852668762207,0.000284578717097166
302,0.391116619110107,0.000293173817549161
303,0.395132064819336,0.000374608321456899
304,0.399664878845215,0.000307077206382723
305,0.403952598571777,0.000235416586389394
306,0.409943103790283,0.000222780443207542
307,0.415315628051758,0.000215298181531008
308,0.420544147491455,0.000271768735769176
309,0.426477909088135,0.000385944820249687
310,0.432435989379883,0.000380017376874154
311,0.438360691070557,0.000381641349333014
312,0.44451379776001,0.000296050984494991
313,0.450818538665772,0.000317021769796201
314,0.456524848937988,0.000378645935918352
315,0.462666988372803,0.00039015421213455
316,0.468381881713867,0.000380285331743823
317,0.474569320678711,0.0003121065852216
318,0.480207443237305,0.000308990478515625
319,0.485520839691162,0.00038582226067009
320,0.490674495697022,0.000370084620228116
321,0.495750427246094,0.000346434583790296
322,0.500494956970215,0.000413740806289268
323,0.50430154800415,0.000439758658160793
324,0.508472919464111,0.000406386129102281
325,0.5121169090271,0.000323715893243252
326,0.515097618103027,0.000345172139565541
327,0.517744541168213,0.00035291619747412
328,0.520196914672852,0.000343063044334746
329,0.522188186645508,0.00042318216498087
330,0.523036956787109,0.000487654999627781
331,0.524158477783203,0.000460742161464973
332,0.524549961090088,0.000441698457623201
333,0.524492263793945,0.000473852352504132
334,0.524051189422607,0.000311131769637727
335,0.523041725158691,0.000378521013073911
336,0.52162504196167,0.000314134008255016
337,0.519638538360596,0.000393394990376951
338,0.517351627349854,0.000464305231664086
339,0.514399528503418,0.000384755290565544
340,0.511115550994873,0.000558172468901266
341,0.50723123550415,0.000594787030050947
342,0.503057479858398,0.000397946249476864
343,0.498764038085938,0.000423972325580811
344,0.49373722076416,0.000422924184729924
345,0.487819671630859,0.000308224234232795
346,0.482111930847168,0.000386001373084667
347,0.475851058959961,0.000463897616241669
348,0.468959331512451,0.000435159824509039
349,0.462527751922607,0.000443703573486371
350,0.454882621765137,0.000432963938419612
351,0.447109699249268,0.000427092797161903
352,0.439380645751953,0.000388603268491629
353,0.4305100440979,0.00033573670540906
354,0.422295570373535,0.000387487627320266
355,0.413654804229736,0.000399715840629132
356,0.404172420501709,0.000419156949733256
357,0.395048141479492,0.000431431973416482
358,0.384899139404297,0.000559552506967435
359,0.375577449798584,0.000620096611823001
360,0.365608215332031,0.000545701743843007
361,0.356092929840088,0.000376477959944926
362,0.346414089202881,0.000209864695525607
363,0.336893558502197,0.000252001107252712
364,0.32749080657959,0.000396545074307741
365,0.318316459655762,0.000396545074307741
366,0.310754299163818,0.000354181853326983
367,0.303606986999512,0.00032340669551493
368,0.295314788818359,0.000298626479901296
369,0.286839485168457,0.000231285192737184
370,0.278774261474609,0.000301867674917394
371,0.270401477813721,0.000346885841485878
372,0.262003421783447,0.000260211570760393
373,0.253664970397949,0.000310183212813257
374,0.246152400970459,0.000356138306182367
375,0.237903594970703,0.000240858940143994
376,0.229996681213379,0.000311272050735805
377,0.222555160522461,0.000386867481346976
378,0.214712619781494,0.000292335013567296
379,0.207208156585693,0.000208639007417731
380,0.200258731842041,0.000301807411062025
381,0.193613052368164,0.000350599526431532
382,0.187032699584961,0.000264812536496103
383,0.180167198181152,0.000197955774658352
384,0.174142360687256,0.000228109646612836
385,0.167764186859131,0.000237363387626292
386,0.161445617675781,0.000292770248956221
387,0.155389308929443,0.000301777274621412
388,0.14949369430542,0.000318835446283132
389,0.143995761871338,0.00029493062451628
390,0.139022827148437,0.00025718105041339
391,0.133825778961182,0.000276979596873037
392,0.128421306610107,0.000221153763437435
393,0.123332977294922,0.00018476193909013
394,0.119344711303711,0.000292048648571202
395,0.114608764648437,0.000218130980876061
396,0.110126495361328,0.000205498559587946
397,0.105770111083984,0.000216271804733715
398,0.101441860198975,0.000190142665871912
399,0.0971975326538086,0.000206042213367447
400,0.0939807891845703,0.000198405518275415
401,0.0904803276062012,0.000181363682649862
402,0.0865850448608398,0.000213737967778432
403,0.0831336975097656,0.000194104939441647
404,0.0797572135925293,0.00024741186594043
405,0.076324462890625,0.000220416396802294
406,0.073453426361084,0.000296093990604509
407,0.0705838203430176,0.00026764797905167
408,0.067598819732666,0.000177434688256191
409,0.0647335052490234,0.000184722554716842
410,0.0619602203369141,0.000259027494948302
411,0.0593585968017578,0.000212170567607651
412,0.0571446418762207,0.000222449517270911
413,0.0542659759521484,0.000239415943672382
414,0.0522890090942383,0.000152861826097787
415,0.0501408576965332,0.000146757432631825
416,0.0479059219360352,0.00023333274917493
417,0.0456833839416504,0.000241311640365138
418,0.0441765785217285,0.000285739668872838
419,0.0418896675109863,0.00025442915495947
420,0.0399899482727051,0.00022149483786995
421,0.0383396148681641,0.000226159596387829
422,0.0365920066833496,0.000180221737839015
423,0.0351214408874512,0.000226191765883585
424,0.0334844589233398,0.000266175951708848
425,0.0319924354553223,0.00019990797181679
426,0.0304703712463379,0.000188185824911533
427,0.0292782783508301,0.00021968483528655
428,0.0278501510620117,0.000197113200115415
429,0.0265612602233887,0.000220003384153407
430,0.0248913764953613,0.000239453928718183
431,0.0241632461547852,0.000233149478523038
432,0.0231404304504395,0.000211672735580522
433,0.0218253135681152,0.000166783978408374
434,0.0207185745239258,0.000158338659047854
435,0.0199427604675293,0.000221449665431213
436,0.0187897682189941,0.000204593705070311
437,0.0179939270019531,0.000215462868163629
438,0.0170145034790039,0.0001904580969282
439,0.0162320137023926,0.000172817785591702
440,0.0152244567871094,0.000187551638451307
441,0.0145382881164551,0.000190290888001468
442,0.0139322280883789,0.000179082668547007
443,0.0132479667663574,0.000224508789075741
444,0.0124197006225586,0.000198079785527156
445,0.0119233131408691,0.000210397067766383
446,0.0113086700439453,0.000245974034281552
447,0.0106549263000488,0.000201453400523574
448,0.0100946426391602,0.000208830723194677
449,0.00974130630493164,0.000236872427989784
450,0.00905895233154297,0.00021253033870215
451,0.00869131088256836,0.000170032401559108
452,0.00830793380737305,0.00021455340788609
453,0.00803518295288086,0.000197288456978796
454,0.00735282897949219,0.00016936246309178
455,0.00699663162231445,0.000205834645255336
456,0.00663900375366211,0.000177767553023048
457,0.00648736953735352,0.000183184924370468
458,0.00609159469604492,0.000199447936229344
459,0.00552606582641602,0.000165478296102478
460,0.00550556182861328,0.000186939627743619
461,0.00508546829223633,0.000187478884796973
462,0.00494241714477539,0.000195826286809391
463,0.00460338592529297,0.000194137735748283
464,0.00419235229492188,0.00019720084801645
465,0.00399446487426758,0.000178568990152711
466,0.00406932830810547,0.000178589361950182
467,0.00378561019897461,0.000217755403541757
468,0.00339555740356445,0.00019182845366038
469,0.00333404541015625,0.000217684388396993
470,0.00330924987792969,0.000193019535186017
471,0.00310850143432617,0.000194932523299918
472,0.00265979766845703,0.000181072593174434
473,0.00262689590454102,0.000193649904579118
474,0.00269842147827148,0.00015873163428635
475,0.00247049331665039,0.000170569123861894
476,0.00227451324462891,0.000175564163322372
477,0.00239467620849609,0.00017701387365255
478,0.00205612182617187,0.000140737257381302
479,0.00195455551147461,0.000179933855607311
480,0.00187110900878906,0.000200516687026236
481,0.00183486938476562,0.00016791981490898
482,0.00171327590942383,0.00017847728828872
483,0.0015711784362793,0.000196891600045226
484,0.00146007537841797,0.000192962983731553
485,0.00137233734130859,0.000210388422081361
486,0.00136566162109375,0.000179052194171129
487,0.00144338607788086,0.000143254453511241
488,0.00134515762329102,0.000174733331504087
489,0.00136518478393555,0.000203774115392865
490,0.00124216079711914,0.000185032479725966
491,0.001190185546875,0.000169970877510876
492,0.00104570388793945,0.000220416396802294
493,0.000904083251953125,0.000217027444383001
494,0.00108480453491211,0.000207594549419797
495,0.00103998184204102,0.000205215113163952
496,0.000847816467285156,0.000218043404028826
497,0.000804424285888672,0.000180781034994018
498,0.00093841552734375,0.000192580827054244
499,0.000756740570068359,0.000221937860804817
500,0.000781059265136719,0.000186306080948696
501,0.000820159912109375,0.00016326781744809
502,0.000611782073974609,0.000209178847167431
503,0.000710964202880859,0.000182019430271013
504,0.0007476806640625,0.000171764660599356
505,0.000689506530761719,0.000200539364522269
506,0.000739097595214844,0.000193950253584078
507,0.000687599182128906,0.000188093976243172
508,0.000751018524169922,0.000187313871896867
509,0.000652790069580078,0.000216162438453784
510,0.000769615173339844,0.000190247867666777
511,0.000649452209472656,0.000181248306552194
512,0.000689506530761719,0.00018182445492685
513,0.000637531280517578,0.00021389535169794
514,0.000560283660888672,0.000214379537899468
515,0.000589370727539063,0.000179463161621495
516,0.000700473785400391,0.000173133261914146
517,0.000684261322021484,0.000180710588405491
518,0.000685691833496094,0.000179346562896815
519,0.000551700592041016,0.000205246134182153
520,0.000693321228027344,0.000181328575956728
521,0.000543117523193359,0.000167195182806481
522,0.000364780426025391,0.000179001392015426
523,0.000547885894775391,0.000199634811172024
524,0.0006256103515625,0.000202901915147328
525,0.00070953369140625,0.000187095248688566
526,0.000692844390869141,0.000183933096305557
527,0.000614166259765625,0.000190691943107949
528,0.000592231750488281,0.000156684365796198
529,0.000691890716552734,0.000179260332486139
530,0.000586986541748047,0.000211014316124283
531,0.000554084777832031,0.000213363182865606
532,0.000607490539550781,0.000212089106180128
533,0.000657081604003906,0.000208263780642605
534,0.000542163848876953,0.000205962743912808
535,0.000601768493652344,0.000204099672539188
536,0.000546932220458984,0.000220618490748351
537,0.000619888305664063,0.000210945343107977
538,0.000664710998535156,0.000214447406373792
539,0.000619411468505859,0.000202421726364227
540,0.000638961791992188,0.000228687044541983
541,0.000539302825927734,0.000232837196734716
542,0.000654697418212891,0.000195761254475711
543,0.000750541687011719,0.00018761951640866
544,0.000637054443359375,0.000196665125753387
545,0.000538825988769531,0.000202758426482205
546,0.000618934631347656,0.000223172016297942
547,0.000659465789794922,0.000211066031095109
548,0.000638961791992188,0.000195263506287593
549,0.000619411468505859,0.000202641767128713
550,0.000544548034667969,0.000212761298869513
551,0.000675201416015625,0.000175869542041519
552,0.000782012939453125,0.000207677773840813
553,0.000574588775634766,0.000245759484364971
554,0.000611782073974609,0.000253253956275172
555,0.000565052032470703,0.000211091883829443
556,0.000532627105712891,0.000197205459984784
557,0.000637531280517578,0.000217203382041729
558,0.000400543212890625,0.00018446635132764
559,0.000645160675048828,0.000201827769900492
560,0.000588893890380859,0.000194011205159842
561,0.000544548034667969,0.000177444939559794
562,0.000652790069580078,0.000185278082955641
563,0.000664710998535156,0.000210613094547488
564,0.000555515289306641,0.000211298591831638
565,0.000547409057617188,0.000209621866754061
566,0.000689983367919922,0.000203322827479815
567,0.000591278076171875,0.000192746049448544
568,0.000554084777832031,0.000211393265448337
569,0.000629901885986328,0.000216670942943707
570,0.000588893890380859,0.000231666316825775
571,0.000603199005126953,0.000222494486712594
572,0.000517845153808594,0.000208316178441314
573,0.000546932220458984,0.000236868588361505
574,0.000578403472900391,0.000220840992317711
575,0.0005950927734375,0.000185552772629018
576,0.000556468963623047,0.00020353742571271
577,0.000543117523193359,0.000202277897070739
578,0.000558853149414063,0.000209634882568879
579,0.000616550445556641,0.000190391230979428
580,0.000585079193115234,0.000210979832434692
581,0.000593662261962891,0.000224557396326859
582,0.000558376312255859,0.000202102466725724
583,0.000682830810546875,0.000198826800777114
584,0.000544548034667969,0.000205458723562882
585,0.000444412231445313,0.000209131014483401
586,0.000597000122070313,0.00021512491349217
587,0.000597000122070313,0.000213201140253066
588,0.000528335571289063,0.000206509579841064
589,0.000553131103515625,0.00021230341125489
590,0.000505447387695313,0.000212337679995076
591,0.000596523284912109,0.000211242628386855
592,0.000536918640136719,0.000232747338173821
593,0.00052642822265625,0.000219361677786714
594,0.000588893890380859,0.000198593374128346
595,0.000524044036865234,0.000203550830590218
596,0.000565052032470703,0.000196271642343702
597,0.000544071197509766,0.000205051066963726
598,0.000506877899169922,0.000190200055882536
599,0.000460624694824219,0.000208495104896827
600,0.0004730224609375,0.000211134964685384
601,0.000430107116699219,0.000210764181548937
602,0.000516414642333984,0.000213324815476096
603,0.000470161437988281,0.000218268530641202
604,0.000452041625976563,0.000201435341052402
605,0.000563621520996094,0.000217984999917032
606,0.000480175018310547,0.000218226858049677
607,0.000470638275146484,0.00020771280572633
608,0.000581264495849609,0.000188277628772782
609,0.000554561614990234,0.000181408809843821
610,0.000429153442382813,0.000187357565925766
611,0.000451564788818359,0.000197891442131636
612,0.000527858734130859,0.000194348437000738
613,0.000477313995361328,0.000224577646243156
614,0.000483989715576172,0.00020289743266254
615,0.000525951385498047,0.000196030533691335
616,0.000432491302490234,0.000195039804646012
617,0.000461578369140625,0.000208835078325973
618,0.000494956970214844,0.000224192585066454
619,0.000351905822753906,0.00021016783694539
620,0.000439167022705078,0.000202879501733013
621,0.000446319580078125,0.00020009441711714
622,0.000460624694824219,0.000213158476986424
623,0.000399112701416016,0.000226280208415169
624,0.000343799591064453,0.000211543795243527
625,0.000453948974609375,0.000229881013030251
626,0.00045013427734375,0.000203456977900717
627,0.000535488128662109,0.000180186408654732
628,0.000607967376708984,0.000184983319949407
629,0.000341415405273437,0.000198872538580111
630,0.000374317169189453,0.000231363826402373
631,0.000371932983398437,0.000207349062072173
632,0.000424861907958984,0.000202534021930545
633,0.000364303588867187,0.000209326624541686
634,0.000383377075195312,0.000220882171715843
635,0.000431060791015625,0.000226336472032375
636,0.000410556793212891,0.000209912361025964
637,0.000407695770263672,0.000193109041119502
638,0.000386714935302734,0.000200185303030764
639,0.000436305999755859,0.000225143904444718
640,0.000386238098144531,0.000208965690058253
641,0.000518321990966797,0.000181839460452501
642,0.000351905822753906,0.00019329733919078
643,0.000363349914550781,0.000224387224881786
644,0.000379085540771484,0.000218381006917189
645,0.000413894653320313,0.000207966610416456
646,0.000428199768066406,0.000190195274043065
647,0.000457286834716797,0.000214777958072803
648,0.000452041625976563,0.000206729668979346
649,0.000360965728759766,0.000212970657080772
650,0.000400066375732422,0.000218938367496975
651,0.000280857086181641,0.00023040266220919
652,0.000422000885009766,0.000211986162790406
653,0.00038909912109375,0.000202516058824352
654,0.000419139862060547,0.000218722246955485
655,0.000502586364746094,0.00021896744435661
656,0.000212669372558594,0.00024459468817336
657,0.00081634521484375,0.000208804590499325
658,0.000504016876220703,0.000212003323493323
659,0.000395774841308594,0.000237642933856423
660,0.000372409820556641,0.000226617580585245
661,0.000430107116699219,0.000214404991094916
662,0.000325679779052734,0.000207362220547573
663,0.000324249267578125,0.000229960126847863
664,0.000393390655517578,0.000239012931047174
665,0.000324726104736328,0.00020752005717267
666,0.000353336334228516,0.000214943043294407
667,0.000377178192138672,0.00020592299768472
668,0.000384330749511719,0.000225265060297239
669,0.000447750091552734,0.000222776360699122
670,0.0003662109375,0.000194484101297079
671,0.00038909912109375,0.000221071498150418
672,0.000323295593261719,0.000242173194943465
673,0.000376701354980469,0.000224143898703348
674,0.000329971313476562,0.000206333339501862
675,0.000415325164794922,0.000212786945635919
676,0.000309944152832031,0.000228965267234127
677,0.000347137451171875,0.000221946056593546
678,0.000375747680664062,0.000210690809966009
679,0.000378608703613281,0.000214854167013783
680,0.000267982482910156,0.000216633161384593
681,0.0003204345703125,0.000203099046536928
682,0.00029754638671875,0.000205330310464349
683,0.000359535217285156,0.000214298916169266
684,0.000303268432617187,0.000214871098663364
685,0.000348567962646484,0.000234118789713785
686,0.000339031219482422,0.00022029670285005
687,0.000446796417236328,0.000220758610477147
688,0.000342845916748047,0.000234099365120945
689,0.000342369079589844,0.000232352330518205
690,0.000313758850097656,0.000206681269477597
691,0.000319480895996094,0.000198570474393006
692,0.000387191772460937,0.000223745896866041
693,0.000317573547363281,0.000227278817934922
694,0.00031280517578125,0.000217190819792538
695,0.000301837921142578,0.000207607692335855
696,0.000338077545166016,0.00021956888475278
697,0.000365257263183594,0.000228488106629578
698,0.000331878662109375,0.000212007613452013
699,0.000356197357177734,0.000195621826675342
700,0.000334739685058594,0.000206764861501025
701,0.000300884246826172,0.000229421614894942
702,0.000372886657714844,0.000214209772638523
703,0.000394344329833984,0.000206870403144634
704,0.000261783599853516,0.000196655876364752
705,0.000306606292724609,0.000201611351891791
706,0.000314712524414062,0.000209673925165481
707,0.000268936157226562,0.000208839433366448
708,0.000346660614013672,0.000208001593655766
709,0.000309944152832031,0.000230848289046471
710,0.000344276428222656,0.000215200999566167
711,0.000290870666503906,0.000220585508465202
712,0.000290393829345703,0.000222081243439743
713,0.000331878662109375,0.000218331024614741
714,0.000291347503662109,0.000232813758714685
715,0.000299453735351562,0.000233492506096184
716,0.000328540802001953,0.000218626587031345
717,0.000212669372558594,0.000202556473573126
718,0.000436305999755859,0.000227502801056369
719,0.000312328338623047,0.000222645680904507
720,0.000242233276367187,0.000202969140539902
721,0.000295639038085937,0.000212680063705968
722,0.000304698944091797,0.000229504849967223
723,0.000273227691650391,0.000219278740176359
724,0.000321388244628906,0.000217186632214672
725,0.000275611877441406,0.000209561115595923
726,0.000282764434814453,0.000220226507184633
727,0.000264644622802734,0.000218763825179785
728,0.000176906585693359,0.000208782810754556
729,0.000284194946289062,0.000227198770449631
730,0.000308513641357422,0.000231241932823693
731,0.000340938568115234,0.000219398989482709
732,0.000299930572509766,0.000229441435508107
733,0.000277519226074219,0.000212410482711074
734,0.000325679779052734,0.000212281990483048
735,0.000284671783447266,0.000220688561733363
736,0.000386238098144531,0.000214676304067864
737,0.000356674194335937,0.0002097649962977
738,0.000346183776855469,0.00021599407450702
739,0.000300884246826172,0.000217500476822505
740,0.00030517578125,0.0002172326911314
741,0.000279903411865234,0.000212812589311546
742,0.000269889831542969,0.000223534424452711
743,0.000242710113525391,0.000233733882323672
744,0.000277519226074219,0.000218201850674582
745,0.000229835510253906,0.000219995115991571
746,0.000239372253417969,0.000224593844861631
747,0.000298500061035156,0.00023681866752882
748,0.000299930572509766,0.000232152615832043
749,0.000292301177978516,0.00022397747377893
750,0.000309467315673828,0.000235640553667319
751,0.000319957733154297,0.000231548510402279
752,0.00025177001953125,0.000243252390116411
753,0.000263690948486328,0.000250000951809859
754,0.000304698944091797,0.000231897828205505
755,0.000279903411865234,0.000236291937530336
756,0.000227451324462891,0.000216124568001081
757,0.000283718109130859,0.000238853058705163
758,0.000311851501464844,0.000234328472714774
759,0.000257015228271484,0.000219502599804929
760,0.000290393829345703,0.000213235264720533
761,0.000296115875244141,0.00022983748882281
762,0.000261783599853516,0.00023568686515265
763,0.000216007232666016,0.000217868144724118
764,0.000348091125488281,0.000231795834738111
765,0.000268459320068359,0.000235528596650042
766,0.000286102294921875,0.000241759730961828
767,0.000293254852294922,0.000227570752313108
768,0.000317096710205078,0.000218214354720361
769,0.000314712524414062,0.000235929851307347
770,0.000191688537597656,0.000208158945476446
771,0.000256538391113281,0.000206430290308542
772,0.000266551971435547,0.000198881684878484
773,0.000253200531005859,0.000222089433937208
774,0.000251293182373047,0.00021505302970466
775,0.000277042388916016,0.000225111585204725
776,0.000284671783447266,0.000234413845349879
777,0.000229835510253906,0.000234627141032132
778,0.000311374664306641,0.000227362837463315
779,0.000182628631591797,0.000217822220175284
780,0.000207901000976562,0.000209178847167431
781,0.000199317932128906,0.000233051935414567
782,0.000237464904785156,0.000233644368624229
783,0.000273227691650391,0.000220993317762784
784,0.000265598297119141,0.000226046967099775
785,0.000239372253417969,0.00022587791786728
786,0.000246524810791016,0.000231521013611485
787,0.000256061553955078,0.000221100294482606
788,0.000253200531005859,0.000239488110108215
789,0.000188350677490234,0.000236834028905772
790,0.000168323516845703,0.000226621593895449
791,0.000194072723388672,0.00022200751536486
792,0.000217914581298828,0.000231017638071285
793,0.000233650207519531,0.000234231420586031
794,0.000260829925537109,0.000217270368437166
795,0.000273227691650391,0.00023146208091745
796,0.000193595886230469,0.000219871056253519
797,0.000269889831542969,0.000223843432135218
798,0.000269889831542969,0.000235972251803778
799,0.000213623046875,0.000221211330935354
800,0.00025177001953125,0.000234336235148655
801,0.000260353088378906,0.000232934829766545
802,0.000260353088378906,0.00024367078632972
803,0.000300407409667969,0.000238212496382991
804,0.000223159790039062,0.000224962048322496
805,0.00018310546875,0.000244177875061247
806,0.000223159790039062,0.00024622533748618
807,0.0002288818359375,0.000251415754822999
808,0.000286102294921875,0.000238239220866006
809,0.000252246856689453,0.000237841862296932
810,0.000224113464355469,0.000239214522230882
811,0.000236034393310547,0.000230292108092707
812,0.000210762023925781,0.000226998528241147
813,0.000207901000976562,0.000236841709220625
814,0.000207424163818359,0.000240772075397058
815,0.000183582305908203,0.000241360631914071
816,0.000283718109130859,0.000247977329157871
817,0.00017547607421875,0.000240900473081161
818,0.000228404998779297,0.000250611384668836
819,0.000237464904785156,0.000234603881835937
820,0.000145435333251953,0.000237551064544454
821,0.000221729278564453,0.000249731597299928
822,0.000249862670898437,0.000246992442427134
823,0.000184059143066406,0.000234491429864265
824,0.000129222869873047,0.000221153763437435
825,0.000272274017333984,0.000228615446836129
826,0.000210285186767578,0.000239172696524311
827,0.000194072723388672,0.000240166929418767
828,0.000243663787841797,0.000241605440644846
829,0.000207424163818359,0.000227378837663015
830,0.000207901000976562,0.000232512761075143
831,0.000155925750732422,0.000229227282190033
832,0.000188350677490234,0.000232516672632717
833,0.000244617462158203,0.000235740883720098
834,0.000170230865478516,0.000220931576862045
835,0.000216960906982422,0.000216939422046667
836,0.000249385833740234,0.000240840059168466
837,0.00017547607421875,0.00026404209107471
838,0.000205516815185547,0.000238181950445008
839,0.000213146209716797,0.00023822776788324
840,0.00017547607421875,0.000249564014187563
841,0.000111579895019531,0.000256196045319885
842,0.000157356262207031,0.000256458610409967
843,0.000132560729980469,0.000230055027516397
844,0.000154495239257812,0.00023325477926392
845,0.00014495849609375,0.000223607649074598
846,0.000174522399902344,0.000223571039761496
847,0.000152111053466797,0.000234483672568008
848,0.000161170959472656,0.000222706946605814
849,0.000207901000976562,0.000231116039761684
850,0.000208377838134766,0.00024221074757979
851,0.000103473663330078,0.000236157183063984
852,0.000147819519042969,0.000228989099164166
853,0.000170230865478516,0.000241319178173888
854,0.000142097473144531,0.000241466118412623
855,0.000105857849121094,0.000255164469921893
856,0.000264167785644531,0.000237925974260379
857,0.000151634216308594,0.000247124968861199
858,0.000113487243652344,0.000256919223640178
859,0.000154495239257812,0.000241643081513263
860,0.000123023986816406,0.000239950977473393
861,0.000176906585693359,0.000253282684533024
862,0.000172138214111328,0.000259406426278871
863,0.000197887420654297,0.000227134712149789
864,0.000190258026123047,0.000227582741605256
865,0.000217437744140625,0.00025102476156275
866,0.000129222869873047,0.000221416806960014
867,0.0000982284545898438,0.000197233129530086
868,0.000168323516845703,0.000213141409288664
869,0.000104427337646484,0.000214421958213297
870,0.000152587890625,0.000206830831339507
871,0.0000743865966796875,0.00025163993942981
872,0.000197410583496094,0.000241168377235447
873,0.000139236450195312,0.000227522788826771
874,0.0000982284545898438,0.000222437251299891
875,0.0000762939453125,0.000239461525004289
876,0.000131130218505859,0.000244378927277328
877,0.000151157379150391,0.000242971811311684
878,0.000117778778076172,0.000258753477205072
879,0.0000820159912109375,0.000259322267167882
880,0.00012969970703125,0.000241680716519256
881,0.000112533569335937,0.000226709868745478
882,0.000211715698242187,0.000242195727223968
883,0.0000867843627929688,0.000239412144836333
884,0.000137805938720703,0.000217705277608952
885,0.000107288360595703,0.000257725080385826
886,0.000103473663330078,0.000249789860723829
887,0.000191688537597656,0.000239996457189017
888,0.0001068115234375,0.000226352544782859
889,0.0000424385070800781,0.000243196300252067
890,0.000172615051269531,0.000262764532956397
891,0.00006866455078125,0.000276071831247904
892,0.000064849853515625,0.000241281486775271
893,0.000140190124511719,0.000233441863299688
894,0.000224113464355469,0.000237045146891758
895,0.0000324249267578125,0.000252541890519424
896,0.0000677108764648438,0.000249345258252884
897,0.0000524520874023438,0.00024555215484442
898,0.000113010406494141,0.000261146607708661
899,0.000133037567138672,0.000239757592436311
900,0.000145435333251953,0.000267001559365801
901,0.000128269195556641,0.000270191266923839
902,0.000143051147460937,0.000247991999334425
903,0.000123977661132812,0.000262438973431654
904,0.000155925750732422,0.000251668851929409
905,0.000108242034912109,0.000238479606447312
906,0.000107765197753906,0.000243087823149558
907,0.0000596046447753906,0.000253261138645142
908,0.000212669372558594,0.000270527668940284
909,0.0000677108764648438,0.000248241259691709
910,0.0000844001770019531,0.00023983724045346
911,0.0000605583190917969,0.000234289656687621
912,0.000113487243652344,0.00025728005051895
913,0.0000529289245605469,0.000282712564969803
914,0.000182151794433594,0.000232497114186762
915,0.000194072723388672,0.000235416586389394
916,0.00008392333984375,0.00023919170911578
917,0.000154495239257812,0.000250553312281388
918,0.000144004821777344,0.000252736289232307
919,0.000184059143066406,0.00023357429049566
920,0.000167369842529297,0.000241013708350445
921,0.0000748634338378906,0.000244460790034098
922,0.0000519752502441406,0.000258500279939231
923,0.0000667572021484375,0.000270494047565244
924,0.000101566314697266,0.000239992667541898
925,0.000120162963867187,0.000232313184307748
926,0.000184535980224609,0.000217538107748158
927,0.000147819519042969,0.000271199221132682
928,0.000149726867675781,0.000270984505500123
929,0.000113010406494141,0.000247735145822383
930,0.0000405311584472656,0.000229374038435391
931,0.0000910758972167969,0.000250945040099934
932,0.0000958442687988281,0.000253411921390417
933,0.000196456909179687,0.000275913654097076
934,-0.000133037567138672,0.00028737104746474
935,0.0000691413879394531,0.000256196045319885
936,0.0000219345092773437,0.000251430224378122
937,0.0000386238098144531,0.00023910423867729
938,0.0000538825988769531,0.000277746900260615
939,0.0000958442687988281,0.000278139568081935
940,0.0000782012939453125,0.000273576566975861
941,0.0000362396240234375,0.000231493513554623
942,0.0000872611999511719,0.000281086505781437
943,0.0000333786010742187,0.000293279274644611
944,0.0000104904174804687,0.000270977792895173
945,0.0000505447387695313,0.000258577672074637
946,0.0000414848327636719,0.000261146607708661
947,0.00006866455078125,0.000263290117872154
948,0.00000762939453125,0.000239446332191089
949,0.0000476837158203125,0.000260001773442756
950,0.000154018402099609,0.000238689268942824
951,0.00000762939453125,0.000236330424693638
952,0.000126838684082031,0.000285746034699287
953,-0.0000905990600585938,0.000255577599725273
954,0.000152587890625,0.000264881217291017
955,-0.0000257492065429687,0.000266974307356608
956,-0.0000548362731933594,0.000281493901172414
957,0.0000796318054199219,0.000257710964264748
958,-0.0000171661376953125,0.000284374103783804
959,-0.0000462532043457031,0.000278499027228454
960,0.0000548362731933594,0.000270924086068187
961,-0.0000324249267578125,0.000250175513184656
962,0.000146389007568359,0.000286546997325151
963,-0.0000433921813964844,0.000287902256227313
964,0.0000691413879394531,0.000267892530555628
965,-0.0000367164611816406,0.000245218579439689
966,0.000091552734375,0.000300484601956921
967,0.0000939369201660156,0.000251726666966222
968,-0.0000109672546386719,0.000305384326251031
969,0.000138282775878906,0.000322183874988721
970,-0.0000214576721191406,0.000302710109168865
971,0.0000553131103515625,0.000259146847904645
972,0.0000700950622558594,0.000242859489026009
973,0.000136852264404297,0.000273922092749502
974,0.000138759613037109,0.000266872087537147
975,0.0000510215759277344,0.000257605068700443
976,-0.0000391006469726562,0.000293136588339815
977,0.0000882148742675781,0.000259973787675123
978,0.000143527984619141,0.00029362639484431
979,0.000205039978027344,0.000330725673049462
980,-0.000131130218505859,0.000293929788743526
981,0.0000696182250976563,0.000252635508572364
982,0.000191688537597656,0.000266134945836259
983,0.000080108642578125,0.000321618798303269
984,0.0001220703125,0.00026420737565495
985,-0.000034332275390625,0.000276460298701621
986,-0.0000934600830078125,0.000266292100723682
987,0.0000452995300292969,0.000256323813283269
988,0.0000948905944824219,0.000273456860180487
989,-0.000183582305908203,0.00026734197508832
990,0.000458240509033203,0.000379595922780117
991,-0.000274181365966797,0.000280159584456794
992,0.000132083892822266,0.000284674578961268
993,-0.000154972076416016,0.000274200853401598
994,-0.0000510215759277344,0.000283323141268903
995,0.00006103515625,0.000244349152202313
996,-0.000140190124511719,0.00025257069977009
997,0.000393390655517578,0.000364378477058702
998,0.0000772476196289063,0.000410359309657599
999,0.000115871429443359,0.000378722791033756
1000,-0.000171184539794922,0.000290261866585049
1001,0.000299453735351562,0.000316493457238002
1002,-0.000109672546386719,0.000317595025788227
1003,0.000151634216308594,0.000309272919597005
1004,0.00000858306884765625,0.000396792700050436
1005,0.0000123977661132812,0.000334944757315433
1006,0.0000987052917480469,0.000353420944997162
1007,0.000141143798828125,0.000382327070018518
1008,0.000101089477539062,0.000367420899750626
1009,-0.000229358673095703,0.000300036307105464
1010,-0.00000667572021484375,0.000291730828355701
1011,0.000212192535400391,0.000315191886418513
1012,-0.000131130218505859,0.000383628459139945
1013,0.000379085540771484,0.000374686004763548
1014,0.000117301940917969,0.00048085617082568
1015,-0.0000452995300292969,0.000476455535766479
1016,0.000237464904785156,0.000364877338874763
1017,0.00003814697265625,0.000401359815599446
1018,0.000535011291503906,0.000418340302258764
1019,0.00000715255737304688,0.000352276500873266
1020,0.000255107879638672,0.000320576454721076
1021,0.000163078308105469,0.000374015455683706
1022,0.000391006469726562,0.000344961283015891
1023,0.000117778778076172,0.000375219642122383
1024,0.000188350677490234,0.000409045133568121
1025,0.000101566314697266,0.000429276342807781
1026,0.000344753265380859,0.000409258529878734
1027,-0.000156879425048828,0.000504824416400781
1028,0.000338077545166016,0.000477904079820645
1029,0.000245571136474609,0.000306733447652854
1030,-0.0000958442687988281,0.000315929717740146
1031,0.000640392303466797,0.000456601893860299
1032,0.000244617462158203,0.000463732900757327
1033,-0.0000505447387695313,0.000693771682971756
1034,0.000145435333251953,0.000632503955290606
1035,-0.000141143798828125,0.000430469613931139
1036,0.000261306762695312,0.000454853663016256
1037,0.000266551971435547,0.000606224891515026
1038,-0.000003814697265625,0.000544513794846352
1039,0.000802516937255859,0.000464407079618329
1040,0.0001373291015625,0.000640823725953177
1041,0.000243186950683594,0.000545555058784892
1042,-0.00000286102294921875,0.000481362800994515
1043,-0.0000581741333007813,0.000546314727363087
1044,0.000684738159179688,0.000577167604260473
1045,0.00000524520874023438,0.000712705516297842
1046,0.000273227691650391,0.000754674007905282
1047,0.000486373901367188,0.000646475835092617
1048,0.000814914703369141,0.000766896476631413
1049,-0.000186443328857422,0.000686497142445538
1050,0.0000672340393066406,0.000584682471555967
1051,0.00114250183105469,0.0007181769164727
1052,0.000721454620361328,0.000714153712392368
1053,0.00113153457641602,0.000864918989304711
1054,0.000338077545166016,0.000762519720967678
1055,-0.00115585327148437,0.000677932989798778
1056,0.00194787979125977,0.00113149348287638
1057,-0.00101900100708008,0.000691544750587443
1058,0.000630855560302734,0.000855019951371133
1059,0.000805854797363281,0.000879434585718143
1060,0.00157594680786133,0.00111229664780388
1061,0.000586986541748047,0.00119638053388634
1062,0.00119733810424805,0.0013389750422602
1063,0.00157260894775391,0.00123784428176008
1064,0.000338554382324219,0.00133442450616916
1065,0.00229978561401367,0.00134673401471958
1066,-0.000919818878173828,0.00112089801535072
1067,-0.000241279602050781,0.00146086470274676
1068,-0.00110530853271484,0.00142479836539003
1069,0.000255107879638672,0.00124770344678961
1070,0.00177717208862305,0.00101883129961239
1071,0.00111818313598633,0.00128647519321308
1072,-0.000795364379882813,0.0012073983880964
1073,-0.000292301177978516,0.00138515014313601
1074,-0.000019073486328125,0.00139453144500902
1075,0.000305652618408203,0.00132481530770284
1076,0.000547409057617188,0.00187980602157105
1077,-0.000391960144042969,0.00171690196691011
1078,0.000272274017333984,0.00155486236959416
1079,0.000967502593994141,0.0016744739550682
1080,-0.000573158264160156,0.00207530750644556
1081,0.00223970413208008,0.00249983488968169
1082,0.000340938568115234,0.00272342669889198
1083,0.00269985198974609,0.00207995821826607
1084,0.000754356384277344,0.00220752018601767
1085,-0.000878810882568359,0.00238086010727155
1086,0.00309276580810547,0.00227361077372606
1087,0.000943660736083984,0.00217741369443745
1088,-0.000113487243652344,0.0026421068029189
1089,0.00351428985595703,0.00284812563362307
1090,-0.000127315521240234,0.00184612430832957
1091,-0.00251674652099609,0.00158962604897361
1092,0.00143289566040039,0.00212738385143441
1093,0.000979423522949219,0.00213181174907164
1094,0.000449180603027344,0.00245177926368905
1095,0.00311183929443359,0.00235044793871701
1096,0.000760555267333984,0.00274497090875778
1097,0.000169277191162109,0.00268355208785188
1098,0.00127363204956055,0.00302501404242764
1099,-0.000743865966796875,0.00274458918859155
1100,-0.00231122970581055,0.0031226506939176
