Wavelength (nm),Absorbance (AU),Std.Dev.
190,1.07757329940796,0.443871022229431
191,0.824733734130859,0.225139489910127
192,0.637117385864258,0.118170115418318
193,0.777395248413086,0.104813411774647
194,0.998533248901367,0.139083894948281
195,1.06195974349976,0.158651587552442
196,1.14596128463745,0.200606951035379
197,1.20209980010986,0.246407445156027
198,1.39114904403687,0.264423119605001
199,0.946578025817871,0.506127010523298
200,2.11007070541382,1.06126421699841
201,1.63157367706299,0.507526962992177
202,1.75504589080811,0.0882425679219334
203,1.73342704772949,0.0356420228676474
204,1.77738857269287,0.0138959237667193
205,1.8161449432373,0.00926629462564453
206,1.79845237731934,0.00595648090759563
207,1.81500864028931,0.00324886817205693
208,1.82874584197998,0.00331547890178576
209,1.84109544754028,0.00315322054518786
210,1.86157941818237,0.00235608747842595
211,1.88521528244019,0.0027995615954425
212,1.90516662597656,0.00347846846893921
213,1.9171929359436,0.00296766775883879
214,1.93186044692993,0.00257701929541463
215,1.93708658218384,0.00418658462881897
216,1.95096158981323,0.0040089691530541
217,1.95229816436768,0.00457661935309264
218,1.94449520111084,0.00494130387030529
219,1.92919826507568,0.00571730353609585
220,1.9136176109314,0.00381695489834465
221,1.878249168396,0.00303423619900648
222,1.83673143386841,0.00204410829728083
223,1.79486703872681,0.00241238511397506
224,1.75349617004395,0.0023337468620978
225,1.70400762557983,0.00135083380249988
226,1.65375518798828,0.00155987071307361
227,1.60003471374512,0.00151408405229564
228,1.54920864105225,0.00130936948358562
229,1.4909553527832,0.00114978797813626
230,1.43795204162598,0.000874339930808964
231,1.38901376724243,0.000820097810035278
232,1.34187841415405,0.000723968840969912
233,1.29789400100708,0.000844264124380437
234,1.25797939300537,0.000673572277480317
235,1.22315692901611,0.000375432884683749
236,1.18962478637695,0.000300163593955752
237,1.16047954559326,0.000356985150408841
238,1.13491487503052,0.000507856422138752
239,1.11307525634766,0.000422984394195307
240,1.09142923355103,0.000393431979234198
241,1.07425212860107,0.000421286641234654
242,1.06062364578247,0.000367885970895094
243,1.04901647567749,0.000418679317426723
244,1.0397777557373,0.000334466512999538
245,1.03391265869141,0.000377799497772875
246,1.03124284744263,0.000627700292116597
247,1.03131437301636,0.000308937492066034
248,1.03251123428345,0.000336321330084929
249,1.03763961791992,0.000567223805652752
250,1.04623937606812,0.000425496948653837
251,1.05646562576294,0.000342325244955785
252,1.06907033920288,0.000447979310810675
253,1.08149099349976,0.000372270284440421
254,1.09404611587524,0.000472476089935524
255,1.10659265518188,0.00067466240181893
256,1.12112522125244,0.000589725548066844
257,1.13396263122559,0.00101071482082304
258,1.14600467681885,0.00117609040736107
259,1.15508890151978,0.000839892042235377
260,1.15571451187134,0.000953262240073841
261,1.15657424926758,0.000606560856566593
262,1.1534276008606,0.000712010970930817
263,1.14533710479736,0.000526925556940674
264,1.13661670684814,0.00081470360094716
265,1.12225484848022,0.00121355347173977
266,1.09630489349365,0.000791289964833479
267,1.06400108337402,0.000777112914560828
268,1.02851057052612,0.000706533014086318
269,0.987644195556641,0.000663713475675401
270,0.946513652801514,0.000560942120885013
271,0.907181739807129,0.000739028066010395
272,0.87179708480835,0.000521442744740048
273,0.833072185516357,0.000528194394856902
274,0.789751052856445,0.000383391308876106
275,0.742075920104981,0.00026220321030914
276,0.69356632232666,0.000250959536795021
277,0.649177551269531,0.000354151037487248
278,0.610645771026611,0.000282963382021917
279,0.576913356781006,0.00025161102360789
280,0.548663139343262,0.000249345258252884
281,0.524246215820313,0.000227206776467233
282,0.503289222717285,0.000201390185289308
283,0.485239982604981,0.000198895403537425
284,0.469060897827148,0.000231858605258451
285,0.454988956451416,0.000217822220175284
286,0.442540645599365,0.000231666316825775
287,0.431604862213135,0.000184648686375137
288,0.422641754150391,0.000207953490184462
289,0.414765357971191,0.000247124968861199
290,0.408061981201172,0.000183462748053147
291,0.402652740478516,0.000179518899458029
292,0.398517608642578,0.000243345844493871
293,0.394938945770264,0.000194610324420952
294,0.392309665679932,0.000196350402108461
295,0.390396118164062,0.000262605267021114
296,0.389027118682861,0.000244274698636429
297,0.388272285461426,0.000242154416441468
298,0.388551235198975,0.00023325477926392
299,0.389003276824951,0.000243282299423067
300,0.389748573303223,0.000243383216197154
301,0.391011238098145,0.000231666316825775
302,0.392416954040527,0.000257880306719293
303,0.3944411277771,0.000273337100960046
304,0.396456718444824,0.000359614892120024
305,0.399065971374512,0.000248307198491285
306,0.402473449707031,0.000234153749920174
307,0.405635356903076,0.000306982414836589
308,0.40799617767334,0.000299520545844324
309,0.411322116851807,0.000307426497604607
310,0.415218353271484,0.000317199589955182
311,0.418232917785645,0.000351594254596085
312,0.421562671661377,0.000245796489090817
313,0.425006866455078,0.000295121755586712
314,0.42852258682251,0.000258035439673299
315,0.431729316711426,0.000270803206763426
316,0.434769630432129,0.000275028826411071
317,0.438028335571289,0.00026553279884083
318,0.4412841796875,0.000270494047565244
319,0.443267345428467,0.000298236389219333
320,0.445548057556152,0.00025394970036075
321,0.44752836227417,0.000246889317129805
322,0.448818683624268,0.000311721693081216
323,0.450331687927246,0.000228420428270567
324,0.451016902923584,0.000296112419882254
325,0.451681137084961,0.00022997594634548
326,0.452590942382813,0.000212243427645742
327,0.451953887939453,0.000219170874362537
328,0.4512939453125,0.000276585282246768
329,0.451034069061279,0.000281584353437054
330,0.449446678161621,0.000226818159106557
331,0.447184562683106,0.000217408462694393
332,0.445318698883057,0.000242465951264507
333,0.442710876464844,0.000261125710686098
334,0.439705848693848,0.000298602114163666
335,0.436231136322022,0.000326936469870159
336,0.432586193084717,0.000248050671364425
337,0.428623676300049,0.000245581784063815
338,0.423935413360596,0.00020064364799135
339,0.419115543365479,0.000242563458185882
340,0.413693428039551,0.000217161505051724
341,0.408300876617432,0.000207296419818016
342,0.402513980865479,0.000275742193122882
343,0.396842956542969,0.000232203539809165
344,0.390659809112549,0.000235644413305396
345,0.383840084075928,0.000271762042534952
346,0.376731872558594,0.000236807145842171
347,0.369850635528564,0.000214837234029794
348,0.362890720367432,0.000206161360112055
349,0.355247497558594,0.000227278817934922
350,0.347397804260254,0.000196577238989991
351,0.340132713317871,0.000170150037751497
352,0.332006454467773,0.000234983493748046
353,0.324025630950928,0.000210958277266271
354,0.316264152526855,0.000188229316532431
355,0.307841777801514,0.000195965569138204
356,0.299171924591064,0.00022844431703969
357,0.290946006774902,0.000259266145916958
358,0.282262325286865,0.000273975211883709
359,0.273876190185547,0.000364797566827706
360,0.265262603759766,0.00046589308596106
361,0.257126808166504,0.00032694759716012
362,0.249377250671387,0.000259343309505974
363,0.241881847381592,0.000300363507166013
364,0.234089851379395,0.000290600072348614
365,0.227354049682617,0.000290600072348614
366,0.221171855926514,0.000244453349098122
367,0.215126037597656,0.000225636199258552
368,0.208884239196777,0.000198235837007855
369,0.20212984085083,0.000256827167082028
370,0.195943832397461,0.000331050013689228
371,0.189521312713623,0.000274631710894109
372,0.183012008666992,0.000201642927318219
373,0.1765456199646,0.000194544885616607
374,0.170882701873779,0.000240975969172857
375,0.16465950012207,0.000211921797778207
376,0.158646106719971,0.000215513515655376
377,0.153159618377686,0.000211091883829443
378,0.147480964660645,0.000209148409452405
379,0.141836166381836,0.000186920166015625
380,0.13666296005249,0.000264819405377149
381,0.131734848022461,0.000266776647034809
382,0.12701416015625,0.000274015044476696
383,0.121803283691406,0.000216515576594812
384,0.117202281951904,0.000217362441023513
385,0.112533092498779,0.000250894295070868
386,0.108207702636719,0.000235227206475912
387,0.10375452041626,0.000207305194455359
388,0.0994362831115723,0.000252390588002358
389,0.0955386161804199,0.000242428438159731
390,0.0920157432556152,0.00017634982799091
391,0.0883340835571289,0.000237604659293232
392,0.0841259956359863,0.000208137098170528
393,0.0806655883789063,0.00020173311558971
394,0.0777797698974609,0.000207992848397562
395,0.0744843482971191,0.000170965905155321
396,0.0708551406860352,0.000198694101609885
397,0.0678906440734863,0.000225978557644628
398,0.0650854110717773,0.000193790751135362
399,0.0620408058166504,0.000193038381989283
400,0.0598397254943848,0.000216809418998419
401,0.057154655456543,0.000181107749488361
402,0.0546197891235352,0.000191092156500949
403,0.0521984100341797,0.000188451450285821
404,0.0497593879699707,0.000266333082399979
405,0.0472207069396973,0.000220729769568982
406,0.0455207824707031,0.000251032007713046
407,0.0437283515930176,0.000259756795743884
408,0.0416355133056641,0.000207778474591949
409,0.0394606590270996,0.000217107052888854
410,0.0376043319702148,0.000278420639359783
411,0.0359320640563965,0.000199912521331972
412,0.0344095230102539,0.000237512775176763
413,0.0324668884277344,0.000211143579801768
414,0.0311031341552734,0.000158171995803207
415,0.0297632217407227,0.000167681330819236
416,0.0285863876342773,0.000216330671367765
417,0.026698112487793,0.000216951998852632
418,0.025935173034668,0.000288690935936105
419,0.0246562957763672,0.00027799565428087
420,0.0230932235717773,0.000217098674420819
421,0.0220723152160645,0.000212547455469278
422,0.0208959579467773,0.000194643035572951
423,0.0200443267822266,0.000223770284668922
424,0.0193672180175781,0.000275926838989641
425,0.0185222625732422,0.000215905630877635
426,0.0172576904296875,0.000209231015805827
427,0.0167326927185059,0.000175926418429219
428,0.0158615112304687,0.000157889992639166
429,0.0151567459106445,0.000183025978636096
430,0.0140085220336914,0.000226123400234637
431,0.0137443542480469,0.00022879439909063
432,0.0132541656494141,0.000222572139802285
433,0.0121393203735352,0.000190572669685862
434,0.011650562286377,0.000167705736805948
435,0.0113863945007324,0.000201005951731685
436,0.010584831237793,0.000225301394348439
437,0.0100898742675781,0.000217989172158234
438,0.00955915451049805,0.000202507076673733
439,0.00915193557739258,0.000202183453491838
440,0.00860691070556641,0.000176767078309596
441,0.00823879241943359,0.000186061834690204
442,0.00774431228637695,0.00017553825935125
443,0.00768470764160156,0.000219349239144319
444,0.00721406936645508,0.000195240215992267
445,0.00675106048583984,0.000210639002872902
446,0.00669336318969727,0.000245729876572036
447,0.00635242462158203,0.000214693249744495
448,0.00569438934326172,0.000193790751135362
449,0.00572013854980469,0.0002333951063497
450,0.00527095794677734,0.000212744199307591
451,0.00513219833374023,0.000158278335726452
452,0.00497865676879883,0.000185964046364381
453,0.00476598739624023,0.000169451046705747
454,0.00445365905761719,0.000187153573181703
455,0.00417995452880859,0.000216830392504025
456,0.00405788421630859,0.000178053829822334
457,0.00400257110595703,0.000176628104389463
458,0.00375986099243164,0.000184914474305975
459,0.00339508056640625,0.000167045523570957
460,0.00367164611816406,0.000203385442020899
461,0.00327348709106445,0.000188572065401846
462,0.00331544876098633,0.000213098734063631
463,0.00298786163330078,0.000208595411076611
464,0.00272274017333984,0.000199602918079533
465,0.00273656845092773,0.00018457971591812
466,0.00274848937988281,0.000174681273307936
467,0.00272226333618164,0.000214320135354427
468,0.00237131118774414,0.000175460524492017
469,0.00239419937133789,0.000199502649453552
470,0.00245189666748047,0.000182851973537549
471,0.00221061706542969,0.000192212106214515
472,0.00199031829833984,0.0001896925100813
473,0.00199556350708008,0.0001954450753395
474,0.00202751159667969,0.000175491622567674
475,0.00183391571044922,0.000172356680880113
476,0.00186347961425781,0.000177444939559794
477,0.00173234939575195,0.000174998587417436
478,0.00182390213012695,0.000147264731567933
479,0.00165605545043945,0.000192849831073036
480,0.0016322135925293,0.000192552488980213
481,0.00166034698486328,0.000165101380087619
482,0.00152158737182617,0.000175408682114022
483,0.00152015686035156,0.000197941990877069
484,0.00146293640136719,0.000192292528703744
485,0.0010833740234375,0.000197007047852248
486,0.00126314163208008,0.000178405932029306
487,0.00171804428100586,0.000154707021727704
488,0.00146579742431641,0.000171236997127254
489,0.00134086608886719,0.000200820352718581
490,0.00135612487792969,0.000193170258125674
491,0.00125312805175781,0.000162916493584411
492,0.00123405456542969,0.000218913441400521
493,0.00118732452392578,0.000207887876603822
494,0.00122594833374023,0.000195965569138204
495,0.00115442276000977,0.000199962559167323
496,0.00104522705078125,0.000222040286420521
497,0.00108575820922852,0.000190042191650704
498,0.0012359619140625,0.000192368189744918
499,0.0010066032409668,0.000217980827595972
500,0.00107383728027344,0.0001904580969282
501,0.0010371208190918,0.000173353753740671
502,0.000982761383056641,0.00020869131100527
503,0.00107336044311523,0.000178150854932184
504,0.000999927520751953,0.000180050074007189
505,0.00108194351196289,0.000206997860834179
506,0.00101661682128906,0.000200180759715102
507,0.00105619430541992,0.000188779343134439
508,0.0010838508605957,0.000183898480120757
509,0.00107383728027344,0.000204095216360404
510,0.00102043151855469,0.000191291949206264
511,0.0010533332824707,0.000187197304626191
512,0.00123167037963867,0.000175869542041519
513,0.0010986328125,0.000211921797778207
514,0.000903606414794922,0.00020705497157077
515,0.000970840454101563,0.000176782513112359
516,0.00114870071411133,0.000168268800006403
517,0.000985145568847656,0.000178242724738857
518,0.00101709365844727,0.000180584722573008
519,0.00103378295898437,0.000208237576799025
520,0.00110769271850586,0.000186783877141496
521,0.000950336456298828,0.000174889413117614
522,0.000885486602783203,0.000185572377761159
523,0.00100851058959961,0.000197316114885469
524,0.000974178314208984,0.000194264183923249
525,0.00105619430541992,0.000185768315285659
526,0.0011143684387207,0.00018392320663185
527,0.00107908248901367,0.000192122182417212
528,0.00101995468139648,0.000156018320072518
529,0.0011749267578125,0.000180443648609395
530,0.00113296508789062,0.000203090090170353
531,0.00101041793823242,0.000203170683255892
532,0.00111293792724609,0.000211324416115257
533,0.00113916397094727,0.000200924490349725
534,0.00105953216552734,0.0001948158461342
535,0.0011439323425293,0.000188398355171669
536,0.00104331970214844,0.000197725919520965
537,0.00110721588134766,0.000200089871737788
538,0.00105762481689453,0.000213584726166284
539,0.00106906890869141,0.000203067697525689
540,0.00113105773925781,0.000224666724191621
541,0.00115394592285156,0.000225042891408557
542,0.00107812881469727,0.000191410774425633
543,0.00118017196655273,0.000188707062806926
544,0.00111913681030273,0.000195612527955115
545,0.00111293792724609,0.0002006663111394
546,0.00112438201904297,0.000221190772834612
547,0.00106620788574219,0.000206707670610677
548,0.00114250183105469,0.000189984753952943
549,0.00113105773925781,0.000201525622224491
550,0.0010218620300293,0.00021089359854225
551,0.001068115234375,0.000186115596368826
552,0.00114202499389648,0.000206773658695554
553,0.00105810165405273,0.000243502767104163
554,0.0010523796081543,0.000251813364632635
555,0.00105381011962891,0.000208193896397311
556,0.00106668472290039,0.00019619748662467
557,0.00113487243652344,0.000211035865568905
558,0.00100278854370117,0.000186154686019321
559,0.0011296272277832,0.000207454306506023
560,0.00110054016113281,0.000197477375470254
561,0.00103282928466797,0.000179326277118796
562,0.00118064880371094,0.000180640114343988
563,0.00110721588134766,0.000205724151358807
564,0.00102519989013672,0.000207953490184462
565,0.00113916397094727,0.000209057069717808
566,0.00112342834472656,0.000202839151346094
567,0.0011444091796875,0.000191733606458706
568,0.00108718872070312,0.000209339658713362
569,0.00110197067260742,0.000216922651837764
570,0.00109291076660156,0.000230410556901999
571,0.0010986328125,0.000219486025440137
572,0.00113821029663086,0.00020470480915085
573,0.00110960006713867,0.000225083302062946
574,0.00106191635131836,0.000218751352542289
575,0.00116252899169922,0.000182553293211499
576,0.00106096267700195,0.000200779588507854
577,0.00115489959716797,0.000201850300098919
578,0.000993728637695313,0.000206161360112055
579,0.00127696990966797,0.000191534274454242
580,0.00119400024414062,0.000212277706069294
581,0.00119495391845703,0.00022495396241597
582,0.00108718872070312,0.00019998984725522
583,0.00145769119262695,0.000201971919741135
584,0.00110673904418945,0.000201602329433042
585,0.000962257385253906,0.000206068696375209
586,0.00122594833374023,0.000215137596373168
587,0.00123882293701172,0.000207046186328957
588,0.00109386444091797,0.000203930269291415
589,0.00116920471191406,0.000215234806965569
590,0.00107717514038086,0.000219635149696118
591,0.00121784210205078,0.00021183165390487
592,0.00111150741577148,0.000226882306782491
593,0.00099945068359375,0.000221289434300099
594,0.00111055374145508,0.000203269142521791
595,0.00107383728027344,0.000202538512458165
596,0.00112819671630859,0.000200194389352763
597,0.00106573104858398,0.00020567993717975
598,0.00110101699829102,0.000190400784695518
599,0.000946521759033203,0.000210815957879938
600,0.00105905532836914,0.000210746919945178
601,0.00101566314697266,0.000206650463892647
602,0.00104379653930664,0.000211363146624681
603,0.000956535339355469,0.000218547532034354
604,0.00107717514038086,0.000201796223396725
605,0.00105094909667969,0.000216259188370269
606,0.0010075569152832,0.000210371129645374
607,0.00107526779174805,0.00020293328976853
608,0.00105953216552734,0.000186715695399074
609,0.00108575820922852,0.000179817562094004
610,0.00101566314697266,0.000188325928619341
611,0.00102567672729492,0.000193964321032346
612,0.00103330612182617,0.000194946519867074
613,0.000963687896728516,0.000224443963032644
614,0.000983715057373047,0.000200058051190697
615,0.000939369201660156,0.000194076823910595
616,0.000986099243164063,0.000191467784337374
617,0.000981330871582031,0.000207857249844746
618,0.000974655151367188,0.00022357917568245
619,0.000912666320800781,0.000208451478459385
620,0.000949382781982422,0.00020091543704626
621,0.000997543334960938,0.000199794200268211
622,0.000844478607177734,0.000214862633005355
623,0.000933170318603516,0.000227298825401525
624,0.000891685485839844,0.000209270133750065
625,0.000967502593994141,0.000225761119520955
626,0.00093841552734375,0.00019480650894202
627,0.00110435485839844,0.000174707304345009
628,0.00112438201904297,0.000190042191650704
629,0.000962257385253906,0.000198451353172941
630,0.000887870788574219,0.000230446079672711
631,0.000894546508789063,0.000209830022906226
632,0.000979900360107422,0.000202731511051239
633,0.000854015350341797,0.000205476429416376
634,0.000936508178710938,0.000221851786743185
635,0.000978469848632813,0.000224658627655799
636,0.000977516174316406,0.000210859095110624
637,0.000993728637695313,0.000193555949935491
638,0.000913619995117188,0.000201584283304067
639,0.000941753387451172,0.000223363473648795
640,0.000911712646484375,0.000203166206700973
641,0.000873565673828125,0.000178064045481416
642,0.000902175903320313,0.000196253106040847
643,0.000950813293457031,0.000246173619562564
644,0.000998020172119141,0.000225002473496378
645,0.000914096832275391,0.000212401918980842
646,0.000951290130615234,0.00019701628075432
647,0.000828742980957031,0.000214646645914659
648,0.000823020935058594,0.000207344675728137
649,0.00095367431640625,0.000217976655195049
650,0.0009002685546875,0.000226344508550283
651,0.000830650329589844,0.000231037321762206
652,0.00100231170654297,0.000212812589311546
653,0.0010228157043457,0.000205741834369959
654,0.000980377197265625,0.000221112634619792
655,0.000965118408203125,0.000222939602723444
656,0.000474452972412109,0.000245389130189139
657,0.00207614898681641,0.000205883243783532
658,0.00123977661132812,0.00021410784887099
659,0.000973224639892578,0.000239358954801118
660,0.00100517272949219,0.00023181152896168
661,0.000928401947021484,0.00021459155561244
662,0.0008544921875,0.000205325880994049
663,0.000955104827880859,0.000229128069352361
664,0.00101757049560547,0.00023578717549938
665,0.000795841217041016,0.000209400474120467
666,0.000883102416992188,0.000219382407290147
667,0.000978946685791016,0.000208917808570937
668,0.000972747802734375,0.000231552438248699
669,0.000998020172119141,0.000222984473329257
670,0.000983715057373047,0.000192259417635276
671,0.000919818878173828,0.000219008976030894
672,0.000870227813720703,0.00024211685506811
673,0.000970840454101563,0.000228245167566705
674,0.000867366790771484,0.000208263780642605
675,0.000964164733886719,0.00021569068822063
676,0.000888347625732422,0.000227938137075568
677,0.000881195068359375,0.000222384090940887
678,0.000939369201660156,0.000210936719895174
679,0.000902652740478516,0.000215935116112444
680,0.000878334045410156,0.000215863502127234
681,0.000912189483642578,0.000201669988034615
682,0.000892162322998047,0.000205755095631011
683,0.000902652740478516,0.000214430441269033
684,0.000837802886962891,0.000214481332557579
685,0.0009765625,0.000234693029570058
686,0.000909328460693359,0.000219316065982324
687,0.000971794128417969,0.000218859425119352
688,0.000980854034423828,0.00023161134795163
689,0.000936031341552734,0.000232086006079212
690,0.000944137573242188,0.000206602045835967
691,0.00091552734375,0.00019868494667627
692,0.0009307861328125,0.000222772278115886
693,0.00086212158203125,0.000228141541138525
694,0.000881195068359375,0.000217492113510375
695,0.000950813293457031,0.000209955683908606
696,0.000946521759033203,0.00022132642101089
697,0.000903129577636719,0.000229643508045844
698,0.000923633575439453,0.000207651496048197
699,0.000907421112060547,0.000192089041985553
700,0.000879287719726563,0.000207261317553804
701,0.000895023345947266,0.000226469038109802
702,0.000917911529541016,0.000215880354613958
703,0.00089263916015625,0.000207142803496147
704,0.000811100006103516,0.000194512157958709
705,0.000830173492431641,0.00019971224462098
706,0.000839710235595703,0.00021170281035916
707,0.000761032104492188,0.000211246933793583
708,0.000890731811523438,0.000208010338546297
709,0.000809192657470703,0.000227138716322804
710,0.000889778137207031,0.000214154569952643
711,0.000799179077148438,0.000219212367495254
712,0.000831127166748047,0.00022114553828584
713,0.000810623168945313,0.000217416829224295
714,0.000815391540527344,0.000232778597259773
715,0.000804424285888672,0.000229132038690673
716,0.000823497772216797,0.000216708717915886
717,0.000789642333984375,0.000203031864157221
718,0.00083160400390625,0.000228396537002836
719,0.000870227813720703,0.000224678868448291
720,0.000824928283691406,0.000203425684048667
721,0.000820636749267578,0.000214214018409747
722,0.000859260559082031,0.0002284642224392
723,0.000851154327392578,0.000220910992727233
724,0.000826835632324219,0.000217529745882815
725,0.000857353210449219,0.000210483505084752
726,0.0009002685546875,0.00021957302689762
727,0.000874519348144531,0.000218181009005814
728,0.000828266143798828,0.00020859105094135
729,0.000879764556884766,0.000226469038109802
730,0.000917434692382813,0.000230828589235964
731,0.000882148742675781,0.000217909885915175
732,0.000881195068359375,0.000231167192086962
733,0.000897884368896484,0.000214133334361056
734,0.000902175903320313,0.000212483260482824
735,0.000837802886962891,0.000221182549059291
736,0.000924110412597656,0.000216918459082956
737,0.000954627990722656,0.000208215737743601
738,0.000887870788574219,0.000216019337464416
739,0.000890731811523438,0.000217345703454395
740,0.000868797302246094,0.000216048807181133
741,0.000898361206054688,0.000213925114009109
742,0.000829696655273438,0.000224573596405972
743,0.000809192657470703,0.000234215888513431
744,0.000877857208251953,0.00022278452564115
745,0.000830173492431641,0.000221256552033221
746,0.000854015350341797,0.000223367545426499
747,0.000806808471679688,0.000235706158919323
748,0.000792980194091797,0.000230145937269924
749,0.000790119171142578,0.000223510010914463
750,0.000883102416992188,0.000236611191329435
751,0.000916004180908203,0.000231493513554623
752,0.000867366790771484,0.000242522210041999
753,0.000815868377685547,0.000250458915933696
754,0.000914573669433594,0.000231642760334095
755,0.000887870788574219,0.000235010585420876
756,0.000862598419189453,0.000215399542052076
757,0.000861644744873047,0.000236807145842171
758,0.00089263916015625,0.000233562608763347
759,0.000882625579833984,0.000220931576862045
760,0.000866413116455078,0.000214209772638523
761,0.0009002685546875,0.00022997594634548
762,0.000916481018066406,0.000237853333861612
763,0.000859260559082031,0.000216897494093193
764,0.000957489013671875,0.000231147519455331
765,0.000879764556884766,0.000235794889912361
766,0.000902175903320313,0.000240900473081161
767,0.000873088836669922,0.00022544667199557
768,0.000953197479248047,0.000216784248113212
769,0.000913619995117188,0.0002351846716583
770,0.000798702239990234,0.000210643320617327
771,0.000853061676025391,0.000207256929352761
772,0.000852584838867188,0.000198304644210008
773,0.000858306884765625,0.000222052574319501
774,0.000899314880371094,0.000216154023371019
775,0.000873088836669922,0.000225297357521004
776,0.000853538513183594,0.000232680898672708
777,0.000859737396240234,0.000232622259824991
778,0.000857830047607422,0.000226328435229104
779,0.000786304473876953,0.000218688978684404
780,0.000833988189697266,0.000208965690058253
781,0.000866889953613281,0.000229726662721322
782,0.000792980194091797,0.000235466804474604
783,0.000854969024658203,0.000223224989014974
784,0.000786304473876953,0.000226621593895449
785,0.000806331634521484,0.000224164185973037
786,0.000821590423583984,0.000231646686582396
787,0.000829696655273438,0.00021999098179412
788,0.000889301300048828,0.000237489798593006
789,0.000858783721923828,0.000234991234544706
790,0.000872135162353516,0.000227190764149904
791,0.000819683074951172,0.000221749274059815
792,0.000847816467285156,0.000232653535716339
793,0.000848770141601563,0.000235211740159473
794,0.000898361206054688,0.00021865986479508
795,0.000855922698974609,0.000232457992358053
796,0.000869274139404297,0.000221441451270509
797,0.000906944274902344,0.000228049832354202
798,0.000868320465087891,0.000235169202544483
799,0.000847339630126953,0.000220300831310295
800,0.000868797302246094,0.000240654947215919
801,0.000872135162353516,0.000235099578936553
802,0.000915050506591797,0.000244155525706474
803,0.000857830047607422,0.000233765009488855
804,0.000880241394042969,0.000226063060433634
805,0.000894069671630859,0.000245544746980934
806,0.000886440277099609,0.000246476384466392
807,0.000905036926269531,0.00024763967523631
808,0.000864982604980469,0.000237313570878665
809,0.000868797302246094,0.000237374882314115
810,0.000904560089111328,0.000242600950412668
811,0.000873565673828125,0.000231391341872103
812,0.000864982604980469,0.000230363184686805
813,0.000862598419189453,0.000237447669081647
814,0.000846385955810547,0.000239153682421351
815,0.000874042510986328,0.000237631452134766
816,0.000993251800537109,0.000247852597598957
817,0.000901222229003906,0.000238353720426067
818,0.000836372375488281,0.000252433826546718
819,0.000870227813720703,0.000235366357589586
820,0.000861644744873047,0.000236987587911017
821,0.000875473022460938,0.000247940649918959
822,0.000910282135009766,0.000249097102620155
823,0.000860691070556641,0.000235397268888612
824,0.000826358795166016,0.000222939602723444
825,0.000903606414794922,0.000230517108791918
826,0.000822544097900391,0.000240522637168256
827,0.000816822052001953,0.000242259557304572
828,0.000908851623535156,0.000242735874480179
829,0.000797748565673828,0.000228639315229259
830,0.000886440277099609,0.000236053177057247
831,0.000808238983154297,0.000228288995356746
832,0.000909805297851563,0.000231913515526896
833,0.000870227813720703,0.000236572749843043
834,0.000852584838867188,0.000222285915338601
835,0.000893592834472656,0.000216830392504025
836,0.000855922698974609,0.000237937441769809
837,0.000805377960205078,0.000261925570237301
838,0.000872611999511719,0.000236534302109152
839,0.000870704650878906,0.000237841862296932
840,0.000852584838867188,0.000248167973810594
841,0.00081634521484375,0.00025472924842524
842,0.000804901123046875,0.000257753310308731
843,0.000855922698974609,0.000230938886530538
844,0.000828742980957031,0.000232238788329035
845,0.000865936279296875,0.00022216313482622
846,0.000855922698974609,0.000221794385477843
847,0.000864028930664063,0.000232809852148606
848,0.000862598419189453,0.000222772278115886
849,0.000889301300048828,0.000231831145247073
850,0.000808238983154297,0.000241695768880788
851,0.0008087158203125,0.000236538147163765
852,0.000827312469482422,0.000231029448487084
853,0.000889778137207031,0.000243394426589192
854,0.000782966613769531,0.00023794508646906
855,0.000835418701171875,0.000256841331777021
856,0.000906467437744141,0.000241624261812029
857,0.000860691070556641,0.000248358472120924
858,0.000764369964599609,0.00025804248895521
859,0.000910282135009766,0.000242079287866676
860,0.000792980194091797,0.00024064360920516
861,0.000811100006103516,0.000253992673489133
862,0.000785350799560547,0.000261661539301186
863,0.000851154327392578,0.000229532588283891
864,0.0008392333984375,0.000228193360234927
865,0.000761508941650391,0.000252246405992304
866,0.000831127166748047,0.00022039576455161
867,0.000786304473876953,0.000206324523533156
868,0.000797748565673828,0.000217692744322314
869,0.000718116760253906,0.000209890696231341
870,0.000763893127441406,0.00020580371294407
871,0.000676631927490234,0.000247786537824973
872,0.0008087158203125,0.000245922263508395
873,0.000771999359130859,0.000225749033484408
874,0.000804424285888672,0.000221420914535577
875,0.000754833221435547,0.000234979623254091
876,0.000721931457519531,0.000247279493265409
877,0.000792026519775391,0.000242248294394814
878,0.000700473785400391,0.000258605808926959
879,0.000720500946044922,0.000259153866954981
880,0.0007781982421875,0.000242874468332076
881,0.000802516937255859,0.000228472184113418
882,0.000769615173339844,0.000247272137150125
883,0.000741004943847656,0.000241349327054684
884,0.000782489776611328,0.000218535047052175
885,0.000730991363525391,0.000255107433996079
886,0.000711441040039063,0.000248226604246427
887,0.000755786895751953,0.000242345888889596
888,0.000725746154785156,0.000230674872974771
889,0.000742912292480469,0.000242717139511489
890,0.000818252563476563,0.000258127065322265
891,0.000675678253173828,0.000266326252558525
892,0.000750541687011719,0.000237987127925456
893,0.000748157501220703,0.000231407063528723
894,0.000782489776611328,0.000234708530067372
895,0.000703811645507813,0.000254271821796348
896,0.000675678253173828,0.000254507785068096
897,0.000805377960205078,0.000248101998008867
898,0.000757694244384766,0.00026301362515438
899,0.000792026519775391,0.000238681648078885
900,0.000812053680419922,0.000267498420848959
901,0.000768184661865234,0.000271869114508585
902,0.000816822052001953,0.000251957794449289
903,0.000804424285888672,0.000260937562174418
904,0.000738143920898438,0.000249447368229245
905,0.000827312469482422,0.000241085396512316
906,0.000677585601806641,0.000249053284782421
907,0.000754833221435547,0.000258669105654368
908,0.000790596008300781,0.000268767012844979
909,0.000757217407226563,0.000248980237916271
910,0.00079345703125,0.000245885277711085
911,0.000875473022460938,0.000234048853634842
912,0.000740528106689453,0.000257802705235532
913,0.000779151916503906,0.000281758715088558
914,0.000870704650878906,0.000238181950445008
915,0.000870704650878906,0.00023540499607915
916,0.000756740570068359,0.000239829656067642
917,0.000761985778808594,0.000256196045319885
918,0.000781536102294922,0.000249170115226179
919,0.000863552093505859,0.000242248294394814
920,0.000753402709960938,0.000243502767104163
921,0.000798225402832031,0.000241420915557075
922,0.000738143920898438,0.000250386279142072
923,0.000746726989746094,0.000262390451282456
924,0.000713348388671875,0.000238761655018404
925,0.000834465026855469,0.000241172148408108
926,0.000767707824707031,0.000218747194838419
927,0.000692367553710938,0.00027129981058799
928,0.000854015350341797,0.000272330380166025
929,0.000705718994140625,0.000257082012183729
930,0.000711441040039063,0.00023458449741079
931,0.000816822052001953,0.00024970246048997
932,0.000782489776611328,0.000254035639348104
933,0.000755786895751953,0.000273902170418281
934,0.000612735748291016,0.000289383196057484
935,0.000680923461914063,0.000270796489664374
936,0.0006866455078125,0.000257364877441967
937,0.000716209411621094,0.000236995263249477
938,0.00078582763671875,0.000288451405434251
939,0.000744819641113281,0.000271205928257072
940,0.000777721405029297,0.00027282420419218
941,0.000677585601806641,0.000241804870479438
942,0.000771522521972656,0.000268116506817712
943,0.000840663909912109,0.000295442084880525
944,0.000683784484863281,0.00027812648808625
945,0.000657558441162109,0.000252613907485704
946,0.000665187835693359,0.000256883821175715
947,0.000661373138427734,0.000251365104820794
948,0.000732898712158203,0.000236391991121384
949,0.000741004943847656,0.000256664216903753
950,0.000905513763427734,0.000228595554604777
951,0.000717639923095703,0.0002228865621796
952,0.000885486602783203,0.000288148555981553
953,0.000610828399658203,0.000263842234059864
954,0.000934600830078125,0.000264331271265818
955,0.000708103179931641,0.000263331566740441
956,0.00087738037109375,0.000274147777987909
957,0.000835895538330078,0.000261578105742398
958,0.000656604766845703,0.000294103016165106
959,0.000855922698974609,0.000281280577176297
960,0.000874042510986328,0.000278694900440263
961,0.000716209411621094,0.000256316716733945
962,0.000907421112060547,0.000281358168252346
963,0.000759124755859375,0.000287314073988237
964,0.000805377960205078,0.000275207341444305
965,0.000638484954833984,0.000255107433996079
966,0.000745773315429688,0.000289270030493856
967,0.0008697509765625,0.000250088247727719
968,0.000702857971191406,0.00030979005944523
969,0.000903129577636719,0.000320916721362349
970,0.000730514526367188,0.000319889149371897
971,0.00095367431640625,0.000286318379499124
972,0.000884532928466797,0.000244438466546643
973,0.000836372375488281,0.000278041453115716
974,0.000844001770019531,0.000270655392075604
975,0.000637054443359375,0.000269071396175685
976,0.000849723815917969,0.000304668720519428
977,0.00111293792724609,0.000260630658760662
978,0.000641345977783203,0.000290618850017409
979,0.000751972198486328,0.000306264603869343
980,0.000772476196289063,0.000274300342122045
981,0.000638961791992188,0.000252923346775067
982,0.000941753387451172,0.000256508254652868
983,0.000913619995117188,0.00030963735802079
984,0.000711441040039063,0.000262272574403978
985,0.00067901611328125,0.000269321409204308
986,0.000758647918701172,0.000276519508475358
987,0.000908851623535156,0.000275880689108835
988,0.000717639923095703,0.00031079834826765
989,0.000847816467285156,0.000257407280420662
990,0.000960350036621094,0.000377414125613853
991,0.000809192657470703,0.000275940023252209
992,0.000731945037841797,0.000297674738270369
993,0.000558853149414063,0.000316706036712794
994,0.00063323974609375,0.000291824340820312
995,0.000835418701171875,0.000255114564184154
996,0.000611782073974609,0.000242844508795979
997,0.000843048095703125,0.000353678191726662
998,0.00110387802124023,0.000425026441112722
999,0.000980854034423828,0.000320894048144759
1000,0.000905036926269531,0.000273928733204594
1001,0.000931262969970703,0.000283791428396624
1002,0.000895023345947266,0.000311990001382329
1003,0.000751018524169922,0.000312845878744132
1004,0.000991344451904297,0.000363248525576108
1005,0.000675201416015625,0.000342107316792476
1006,0.000997543334960938,0.000337616871592338
1007,0.000672817230224609,0.000347388878619979
1008,0.000896453857421875,0.000300569339282151
1009,0.000638961791992188,0.000410554301025057
1010,0.000947475433349609,0.000345719764734664
1011,0.00131511688232422,0.000343905061053994
1012,0.000983715057373047,0.00041572325074465
1013,0.00101184844970703,0.000446278822904519
1014,0.000988960266113281,0.000539209853640278
1015,0.000822544097900391,0.000479864050095105
1016,0.000871658325195313,0.000367727714837485
1017,0.000965595245361328,0.000386792244574319
1018,0.000959873199462891,0.000440477792561458
1019,0.00103902816772461,0.000375936431724698
1020,0.00133132934570312,0.000294609739111921
1021,0.000927925109863281,0.000403538359221325
1022,0.00107574462890625,0.000426188932142161
1023,0.00112819671630859,0.000385614763411707
1024,0.00116491317749023,0.000399561086656862
1025,0.000802040100097656,0.0004614207100968
1026,0.00146293640136719,0.000484886888196333
1027,0.000436305999755859,0.000504982932842191
1028,0.00141000747680664,0.000453908902491273
1029,0.000894069671630859,0.000380524417718317
1030,0.00127649307250977,0.00037500627830336
1031,0.00113773345947266,0.000447337302561375
1032,0.00174236297607422,0.000512704395032088
1033,0.000915050506591797,0.000622415526163657
1034,0.00129032135009766,0.000617344846767937
1035,0.00169658660888672,0.000450505895288877
1036,0.00153636932373047,0.000483557080236669
1037,0.00143671035766602,0.000646081796931088
1038,0.000808238983154297,0.000617839655793086
1039,0.00130271911621094,0.000619944056424769
1040,0.000717639923095703,0.000832111308898126
1041,0.00209188461303711,0.000709328570505948
1042,0.00121736526489258,0.00056887612251144
1043,0.00125741958618164,0.000641220995271915
1044,0.000712871551513672,0.000675007420489134
1045,0.0011749267578125,0.000828817054765577
1046,0.000597953796386719,0.000815685397730883
1047,0.00249719619750977,0.000675750767566084
1048,0.00187587738037109,0.00081848150220582
1049,0.00195455551147461,0.000778291734053497
1050,0.00119304656982422,0.00101307328324572
1051,0.00096893310546875,0.00101783100215011
1052,0.00241470336914062,0.000807112778435003
1053,0.00139856338500977,0.000979389628387513
1054,0.00124788284301758,0.000963616993790629
1055,0.000263214111328125,0.000870319649018079
1056,0.00250625610351562,0.00112726724666421
1057,0.00162458419799805,0.000755348589906546
1058,0.00118827819824219,0.00092821861478918
1059,0.00219058990478516,0.0011459848365182
1060,0.00160551071166992,0.000850189821877114
1061,0.00139427185058594,0.00120462317202216
1062,0.00235986709594727,0.00117053412177608
1063,0.00304460525512695,0.00119448155461309
1064,0.00109338760375977,0.00126028268390301
1065,0.00264644622802734,0.00136177746678455
1066,0.000578880310058594,0.0011563001215871
1067,0.000566959381103516,0.00136201253786895
1068,0.000393390655517578,0.0015095022670134
1069,0.00179910659790039,0.00115224065966068
1070,0.00133657455444336,0.000884763091338448
1071,0.00054931640625,0.00138087825816191
1072,0.000393867492675781,0.00151546740941591
1073,0.00114154815673828,0.00159711493529738
1074,-0.000278472900390625,0.0015959482529993
1075,0.00272226333618164,0.00161491053608768
1076,0.00406980514526367,0.00188240526076832
1077,0.00137615203857422,0.00150780463587237
1078,0.00230216979980469,0.00183911140509752
1079,0.00119686126708984,0.00136025921247287
1080,-0.000667095184326172,0.00196162994666871
1081,0.00340986251831055,0.00252384245726285
1082,0.00147676467895508,0.00239130102833981
1083,0.00156879425048828,0.00159995515926306
1084,0.00356245040893555,0.00217227499523725
1085,0.00100946426391602,0.00219450883646811
1086,0.00306224822998047,0.00244316991045532
1087,0.00204896926879883,0.0019989013671875
1088,0.00317859649658203,0.00238296172190705
1089,0.00309324264526367,0.00318590945876476
1090,0.000367164611816406,0.00251325735484567
1091,0.000880241394042969,0.00218893166082292
1092,0.0021514892578125,0.0022880552927229
1093,0.00191211700439453,0.00227662973677733
1094,0.00258874893188477,0.00230993070472162
1095,0.00408697128295898,0.00162296428539146
1096,0.00147008895874023,0.00273328316552122
1097,0.000349521636962891,0.00273098224237442
1098,0.00415229797363281,0.00252019585116592
1099,-0.0010371208190918,0.00243925953899429
1100,-0.00239229202270508,0.00271961965299423
