Wavelength (nm),Absorbance (AU),Std.Dev.
190,0.713504314422607,0.188094151397748
191,0.660009384155273,0.146318265192709
192,0.749750137329102,0.202734939486208
193,0.965830326080322,0.141581356316935
194,0.795056819915772,0.116722711089915
195,0.892189502716064,0.20347682121672
196,1.08142900466919,0.291225281022511
197,1.65032720565796,0.430193239305932
198,1.20189571380615,0.21136657026684
199,0.945813655853272,0.0788343649777204
200,1.44148540496826,0.121323889801524
201,1.46715927124023,0.0946963547195348
202,1.85963249206543,0.0534706985234524
203,1.76014995574951,0.0204368453314683
204,1.80178117752075,0.0118979423154406
205,1.84504413604736,0.0112015725607075
206,1.84755992889404,0.00581550066413774
207,1.85119295120239,0.00502929317140906
208,1.85181045532227,0.00486915585928262
209,1.86761713027954,0.00420866060007359
210,1.87755012512207,0.00496255607933624
211,1.88975286483765,0.00404895928368714
212,1.90280723571777,0.00292674552703611
213,1.91084432601929,0.00417957145315911
214,1.91836357116699,0.00349722657417814
215,1.92707014083862,0.00265002601381345
216,1.92717456817627,0.00268658704554123
217,1.9188985824585,0.00179662116994524
218,1.90932464599609,0.000985078633961988
219,1.88692235946655,0.0016247565472241
220,1.87329006195068,0.00306971037884023
221,1.84165239334106,0.00235751994576112
222,1.79177331924438,0.00248727622762872
223,1.74415445327759,0.00235653213043838
224,1.69787311553955,0.00134844017724736
225,1.64810609817505,0.00117289379656851
226,1.59782981872559,0.00146050605676078
227,1.54108762741089,0.00102977044360457
228,1.48711347579956,0.000962619788863674
229,1.43190813064575,0.00122998996532571
230,1.37356376647949,0.000779057944150963
231,1.32154607772827,0.000516916112559158
232,1.27566480636597,0.000700368444832996
233,1.23050355911255,0.000450271650139359
234,1.19004392623901,0.000483684960616364
235,1.15495491027832,0.000517113134852006
236,1.12222290039063,0.000425890064880573
237,1.09467172622681,0.000318430126262042
238,1.07070875167847,0.000335026208131842
239,1.05059480667114,0.000381145339371723
240,1.03278398513794,0.000371996556253085
241,1.01797294616699,0.000377076601894592
242,1.00658559799194,0.000391011121768725
243,0.99776554107666,0.000309043455880526
244,0.991623401641846,0.000252793860141763
245,0.987754344940186,0.000258225702739259
246,0.987679481506348,0.000331055508249666
247,0.989221572875977,0.000330461567858169
248,0.991917610168457,0.000496716944241849
249,0.998103141784668,0.000487520698457938
250,1.00590515136719,0.000414478751238812
251,1.01508951187134,0.000544807686172835
252,1.02585506439209,0.000569553592097139
253,1.03642177581787,0.000508572257667475
254,1.04690742492676,0.000570612918916763
255,1.05712509155273,0.000503366613867392
256,1.06549453735352,0.00073194488252023
257,1.07319068908691,0.000593366319359581
258,1.07747220993042,0.000862087822987398
259,1.08026695251465,0.000546754053058905
260,1.07810926437378,0.000480818341198694
261,1.07286787033081,0.000798448123646585
262,1.06585836410522,0.000720987874924205
263,1.05443334579468,0.000628488016559417
264,1.03918170928955,0.000605396181802997
265,1.01904153823853,0.000562599953903489
266,0.994667530059814,0.000675847665604615
267,0.965106964111328,0.000631329516263075
268,0.934682369232178,0.000477744193475253
269,0.900290966033936,0.000493188871571685
270,0.865423679351807,0.000410040032860879
271,0.833482265472412,0.000557193962096869
272,0.804179668426514,0.000470956783485245
273,0.774518013000488,0.000376999411187152
274,0.744453907012939,0.000373567754282992
275,0.715752124786377,0.000378636327932054
276,0.689523220062256,0.000310540725539159
277,0.664320468902588,0.000387130694904124
278,0.641409397125244,0.00033267790919949
279,0.621645927429199,0.000335129350747641
280,0.603427886962891,0.000360493937462102
281,0.58683443069458,0.000266817554287528
282,0.571245670318604,0.000286013271468763
283,0.556931018829346,0.000297521932526252
284,0.543250560760498,0.000315756943212901
285,0.531299591064453,0.000323890038255727
286,0.519623756408691,0.000238471978883175
287,0.509282112121582,0.000271407064915402
288,0.500553607940674,0.000243222477131778
289,0.492405414581299,0.000263214111328125
290,0.485212802886963,0.000282480843872199
291,0.478795528411865,0.000259048561230542
292,0.473446369171143,0.000263780178679968
293,0.468772411346436,0.000238757845772078
294,0.464888572692871,0.000250342686950845
295,0.461182117462158,0.000240492384651041
296,0.45805025100708,0.000231096362775588
297,0.455325603485107,0.000260721372370024
298,0.453052520751953,0.000282661087808966
299,0.451298713684082,0.000261661539301186
300,0.45021915435791,0.000368518315513264
301,0.448771953582764,0.00027560362754011
302,0.446968078613281,0.000284540363308663
303,0.44622802734375,0.000266011890292034
304,0.446286201477051,0.000266735733508453
305,0.44566011428833,0.000313670427101114
306,0.445749282836914,0.000286064145405748
307,0.445848941802979,0.000222290006854386
308,0.445953369140625,0.000275524415919139
309,0.445242881774902,0.000329375418035836
310,0.445633411407471,0.000247823239873347
311,0.44625186920166,0.000207256929352761
312,0.446462631225586,0.000266947052565321
313,0.446954250335693,0.000289490034025637
314,0.447455883026123,0.000221675435573704
315,0.44804859161377,0.000252527484661592
316,0.447787284851074,0.000274975910811464
317,0.448203563690186,0.000314145589018813
318,0.448517799377441,0.000262508275229432
319,0.448363304138184,0.000208019083069204
320,0.448036670684814,0.000216132984230684
321,0.447722434997559,0.000263428255404151
322,0.447210311889648,0.000232583159046501
323,0.446022510528564,0.000245811289421349
324,0.445438385009766,0.000255719903522337
325,0.444043636322022,0.000269422699745031
326,0.442691326141357,0.000214150323002787
327,0.440676689147949,0.000262272574403978
328,0.438192367553711,0.000284028484570225
329,0.436243534088135,0.000312193994530315
330,0.432961940765381,0.000240836282795734
331,0.430142402648926,0.000275002369884011
332,0.426452159881592,0.000251227574768842
333,0.423068046569824,0.000291069150649037
334,0.418907642364502,0.000199566462589876
335,0.414810180664063,0.000257244697712117
336,0.410098552703857,0.000408920600959604
337,0.404994010925293,0.000264798798199474
338,0.400164604187012,0.000173332766603337
339,0.394631385803223,0.000215327749945017
340,0.388889789581299,0.000284578717097166
341,0.382556438446045,0.000206117239718605
342,0.37633228302002,0.000232176120594004
343,0.370618343353271,0.000257590946002661
344,0.363856315612793,0.000236995263249477
345,0.35681676864624,0.000204188775692188
346,0.349892616271973,0.000184693010925415
347,0.343072414398193,0.000212281990483048
348,0.336018562316895,0.000289056152438372
349,0.328133583068848,0.00025838062831594
350,0.320606708526611,0.000156504318833209
351,0.313184261322021,0.000159009284978228
352,0.305744647979736,0.000229207443058055
353,0.29759693145752,0.000211126349217456
354,0.290165424346924,0.000171329920036523
355,0.282577991485596,0.000222608913390277
356,0.273961544036865,0.000229869143609149
357,0.266135692596436,0.000276322093223182
358,0.258283615112305,0.000246358276578464
359,0.250288486480713,0.000263524908592288
360,0.242274761199951,0.000328424167276804
361,0.23533821105957,0.000269301146524431
362,0.227576732635498,0.000232046814939926
363,0.22007417678833,0.000262147705818614
364,0.213737010955811,0.000288438793055616
365,0.20733118057251,0.000288438793055616
366,0.201766490936279,0.00030414885353512
367,0.196067333221436,0.000275273428744791
368,0.19012451171875,0.000227150728418338
369,0.184200286865234,0.000209135363361293
370,0.17826509475708,0.000212131984515115
371,0.172689914703369,0.000270581454450819
372,0.166647434234619,0.000212987738461701
373,0.160726070404053,0.000204162048829486
374,0.155655860900879,0.000219515029757266
375,0.150214195251465,0.000210695126648759
376,0.14532995223999,0.000227234795307533
377,0.1400146484375,0.000255741242262359
378,0.13457202911377,0.000240348633193137
379,0.129914283752441,0.000181784434136198
380,0.125274181365967,0.000259847814421484
381,0.120787143707275,0.000276940190675004
382,0.11653470993042,0.000250894295070868
383,0.112265110015869,0.000189020077940011
384,0.10819673538208,0.000219394844052066
385,0.104180812835693,0.000258655041053556
386,0.10008430480957,0.00021321820316948
387,0.0964055061340332,0.000198730717126939
388,0.092644214630127,0.000259448495597138
389,0.0891389846801758,0.00023979173054025
390,0.0860457420349121,0.000177362912540706
391,0.0824575424194336,0.000217980827595972
392,0.0793576240539551,0.00020435796465029
393,0.0761294364929199,0.000221617988631658
394,0.0737447738647461,0.000215019193724479
395,0.0707287788391113,0.000208856852620241
396,0.0677762031555176,0.00020905271921119
397,0.0654139518737793,0.000243536380222784
398,0.0626077651977539,0.000216200302272957
399,0.0600686073303223,0.000169260400288571
400,0.0583815574645996,0.000209409160594
401,0.0561442375183106,0.000167944186238709
402,0.0538372993469238,0.000198895403537425
403,0.0518069267272949,0.000194736465730289
404,0.0495758056640625,0.000247485375721872
405,0.0477495193481445,0.000234712405031753
406,0.0465884208679199,0.000254800647156475
407,0.0445704460144043,0.000249498407546313
408,0.0428867340087891,0.000211634061728044
409,0.0413241386413574,0.000220424649161824
410,0.0397562980651855,0.000266162283786597
411,0.0383205413818359,0.000203412270923997
412,0.0367097854614258,0.00021304324349126
413,0.0355453491210937,0.000208987450744152
414,0.0342769622802734,0.000165486540132679
415,0.032623291015625,0.000173479623246265
416,0.0319004058837891,0.000249818987340151
417,0.0303869247436523,0.000251010268634615
418,0.0298242568969727,0.000298315667672815
419,0.0285577774047852,0.000278557803653854
420,0.0274877548217773,0.000228774522419401
421,0.0264678001403809,0.000235037673970978
422,0.0256972312927246,0.000204255577548638
423,0.0248556137084961,0.000210673542350526
424,0.0242257118225098,0.000262812986040346
425,0.0236120223999023,0.000197071669082868
426,0.022575855255127,0.00017838044073336
427,0.0218696594238281,0.000163217674623893
428,0.0211429595947266,0.000137170063754007
429,0.0209221839904785,0.000166478323054764
430,0.0197172164916992,0.000232692624669003
431,0.0194811820983887,0.00026653789626409
432,0.0189571380615234,0.000218326858906364
433,0.0184330940246582,0.000165538742789772
434,0.0176763534545898,0.000172385700931744
435,0.017601490020752,0.000216254982752222
436,0.0167169570922852,0.000212149133422541
437,0.016441822052002,0.000214137581647845
438,0.0157113075256348,0.000208839433366448
439,0.0153441429138184,0.000193861136039849
440,0.015202522277832,0.000201967416615938
441,0.014617919921875,0.000199602918079533
442,0.0142159461975098,0.000155097470537698
443,0.0141000747680664,0.000227718576133537
444,0.0136194229125977,0.000213056050290732
445,0.0135455131530762,0.000206403853695728
446,0.0132651329040527,0.0002510972136558
447,0.0127658843994141,0.000206196649629621
448,0.0126361846923828,0.000208001593655766
449,0.0124015808105469,0.00023449918690391
450,0.0121407508850098,0.00020446474870181
451,0.0117568969726562,0.0001716375334393
452,0.0117111206054687,0.000194133050900836
453,0.0113968849182129,0.000178099795673753
454,0.0111870765686035,0.000183125335887122
455,0.0110340118408203,0.000220061252588004
456,0.0109038352966309,0.000210414358070703
457,0.0106930732727051,0.000192297258390971
458,0.0106234550476074,0.000184904637121539
459,0.0102291107177734,0.000184500860968065
460,0.0102944374084473,0.000204767001104024
461,0.0101804733276367,0.000197629300643747
462,0.0100564956665039,0.000216767465899282
463,0.00988912582397461,0.000204895767242367
464,0.00960016250610352,0.000209387443734494
465,0.00946426391601563,0.000188971955513013
466,0.00943565368652344,0.000184036905793441
467,0.00950050354003906,0.000227722570040145
468,0.009185791015625,0.000190815908379719
469,0.00900411605834961,0.000199648478080601
470,0.00911235809326172,0.000186920166015625
471,0.00902318954467773,0.000213243794984152
472,0.00860500335693359,0.000191638712314581
473,0.00872325897216797,0.000191434530618795
474,0.0086216926574707,0.000161798935397709
475,0.00848054885864258,0.000167835842129478
476,0.00846385955810547,0.000179234962705448
477,0.00841188430786133,0.000176231169422841
478,0.00818395614624023,0.00014777644360408
479,0.00826120376586914,0.000179630323246104
480,0.0080714225769043,0.000193870518763086
481,0.00802421569824219,0.000173022910631967
482,0.00786781311035156,0.000184505790389789
483,0.00780773162841797,0.000210518070074735
484,0.00770282745361328,0.000208438388747593
485,0.00725173950195313,0.000214358324594525
486,0.00741291046142578,0.000180246968731051
487,0.00787067413330078,0.000144829818431803
488,0.00772857666015625,0.000176060780487379
489,0.00740766525268555,0.000204041734623967
490,0.00745820999145508,0.000184056672390973
491,0.00723075866699219,0.000159374929117206
492,0.00710582733154297,0.000230355288370464
493,0.00713253021240234,0.000228145527640725
494,0.00711488723754883,0.000201453400523574
495,0.00693464279174805,0.000203925809410838
496,0.00683403015136719,0.000226778057594759
497,0.00673151016235352,0.000197422100965867
498,0.00691986083984375,0.000198588794392528
499,0.00656986236572266,0.000222384090940887
500,0.0066218376159668,0.00019195642304343
501,0.00655031204223633,0.000175159625112661
502,0.00654745101928711,0.00020590091313164
503,0.00653362274169922,0.000177762436747471
504,0.00649309158325195,0.000183373493487878
505,0.00641727447509766,0.000209113618067409
506,0.00620079040527344,0.000197288456978796
507,0.00625133514404297,0.000192079572240571
508,0.00621223449707031,0.000189735656336852
509,0.00621986389160156,0.00020470480915085
510,0.00613498687744141,0.000191667185490924
511,0.00618886947631836,0.000184308510685803
512,0.00615358352661133,0.00016020309294558
513,0.00604820251464844,0.000204295648177732
514,0.00592327117919922,0.000204829174173957
515,0.00582981109619141,0.000174993390185728
516,0.00587606430053711,0.000160820710215808
517,0.00582313537597656,0.000190338676969298
518,0.0057520866394043,0.000182986220630058
519,0.00567722320556641,0.000211728585340732
520,0.00569629669189453,0.000196530967012562
521,0.00548744201660156,0.000171963108640909
522,0.00546169281005859,0.000185846632454098
523,0.00556230545043945,0.000201827769900492
524,0.00556564331054688,0.000199971655610369
525,0.00550508499145508,0.000191154019414788
526,0.00538873672485352,0.000183670840032275
527,0.00542259216308594,0.000195254190502836
528,0.00532817840576172,0.000166944768235275
529,0.00544977188110352,0.00018268775978773
530,0.00534439086914063,0.000201046670045023
531,0.00523185729980469,0.000200362411984526
532,0.00519943237304688,0.000212513220556361
533,0.00518321990966797,0.000203640173890219
534,0.00520038604736328,0.000195011823897766
535,0.00508975982666016,0.000193325568083109
536,0.00514936447143555,0.000203036343674131
537,0.00510406494140625,0.000202313863980175
538,0.00506162643432617,0.000214247981550538
539,0.00500965118408203,0.000201326950205908
540,0.00501346588134766,0.000221346966513001
541,0.00502777099609375,0.000226183723938588
542,0.00493097305297852,0.000193762590014653
543,0.0049738883972168,0.000187852054630205
544,0.00493478775024414,0.000197523425741493
545,0.00476598739624023,0.000195133044829484
546,0.0048365592956543,0.000221761578083909
547,0.00476980209350586,0.000212226286357743
548,0.0046687126159668,0.000192835682322251
549,0.00484991073608398,0.000198231249011858
550,0.00472402572631836,0.00020889168677011
551,0.00464487075805664,0.000175703978773903
552,0.00473451614379883,0.000213478243660655
553,0.00451517105102539,0.000252260827901694
554,0.0044703483581543,0.000251372341160232
555,0.00457906723022461,0.00020900920916447
556,0.00440216064453125,0.00019466172519185
557,0.00452804565429688,0.000211732880865942
558,0.00431680679321289,0.000197205459984784
559,0.00452899932861328,0.0002025519834437
560,0.00439596176147461,0.000190381676783914
561,0.0044097900390625,0.000176324039442742
562,0.00446605682373047,0.000182458609179442
563,0.00442123413085938,0.000208040942768413
564,0.00418424606323242,0.000208708742621656
565,0.00430679321289063,0.000212757024107874
566,0.00431585311889648,0.000206209881641718
567,0.00428676605224609,0.000186657234083004
568,0.0042576789855957,0.000209873362785426
569,0.00418615341186523,0.000218555854959583
570,0.00416374206542969,0.000232038975917748
571,0.00411844253540039,0.000219183323127125
572,0.00413036346435547,0.000204260030228949
573,0.00407743453979492,0.000226063060433634
574,0.00394678115844727,0.000219299477519553
575,0.00405740737915039,0.000186652361480143
576,0.00410747528076172,0.000199871571967286
577,0.00401449203491211,0.000200421413522865
578,0.00395917892456055,0.000203957026526889
579,0.00418233871459961,0.000191728862866962
580,0.00393915176391602,0.00021094103154564
581,0.00402212142944336,0.00022236773135055
582,0.00379371643066406,0.000196030533691335
583,0.00416851043701172,0.000198520085677053
584,0.00385046005249023,0.000200435026796001
585,0.00368642807006836,0.000207076933044678
586,0.00398159027099609,0.000214947274581616
587,0.00385141372680664,0.00020981268444785
588,0.00370359420776367,0.000205759515861429
589,0.00386428833007812,0.000209330969355754
590,0.003753662109375,0.000214672067439698
591,0.00370550155639648,0.000213107269792303
592,0.00377416610717773,0.0002289771835092
593,0.00365638732910156,0.000224885220472101
594,0.00374650955200195,0.000200888274687868
595,0.0036005973815918,0.000204121951973866
596,0.00374698638916016,0.000195738023405996
597,0.00365304946899414,0.00020466037475645
598,0.00358724594116211,0.000188552772168175
599,0.00344657897949219,0.000209760660473719
600,0.00357198715209961,0.000211302896098081
601,0.00348567962646484,0.000206024556137715
602,0.0035405158996582,0.000212149133422541
603,0.00349092483520508,0.000216922651837764
604,0.00345516204833984,0.000200965225168258
605,0.00352907180786133,0.000220482407030046
606,0.00352001190185547,0.000212341963198739
607,0.00345849990844727,0.000205715309283228
608,0.00342130661010742,0.000191206349324148
609,0.003448486328125,0.000182448639580812
610,0.00330734252929687,0.000188504530444943
611,0.00335693359375,0.000194853190428622
612,0.00339174270629883,0.000199561905185416
613,0.00328826904296875,0.000225813484871035
614,0.00334787368774414,0.000201453400523574
615,0.00331306457519531,0.000196933169052349
616,0.0032191276550293,0.000196044451866204
617,0.00320577621459961,0.000210643320617327
618,0.003204345703125,0.000223412330083409
619,0.00313997268676758,0.00021094103154564
620,0.003143310546875,0.00020331388097122
621,0.00320100784301758,0.000200870164408391
622,0.00311040878295898,0.000214315891685466
623,0.00312519073486328,0.000224994389042663
624,0.00307512283325195,0.000207243764192134
625,0.00307750701904297,0.000226416824375162
626,0.00307512283325195,0.000198102741983805
627,0.00320148468017578,0.000175299763215766
628,0.00327157974243164,0.000183413167545782
629,0.00316572189331055,0.000196401347479068
630,0.00312137603759766,0.000233243081529227
631,0.00302028656005859,0.000208255046394424
632,0.00304651260375977,0.000203948107838448
633,0.00297927856445312,0.000207116457829459
634,0.00304079055786133,0.000220441152954088
635,0.00302505493164062,0.000223208691056421
636,0.00301742553710937,0.000210111572323035
637,0.00299167633056641,0.000198240424897669
638,0.00296163558959961,0.000205290441791024
639,0.00295066833496094,0.000223697113283892
640,0.00292396545410156,0.000204135318467511
641,0.00296449661254883,0.000183755000742896
642,0.00296640396118164,0.000202435205121255
643,0.00287914276123047,0.000229171728292518
644,0.00296688079833984,0.000220375130369266
645,0.00296115875244141,0.000207098892189716
646,0.00291776657104492,0.00019198484910026
647,0.00286006927490234,0.000224739579888051
648,0.00292730331420898,0.000215543054529634
649,0.00285720825195312,0.000210876347532115
650,0.00294589996337891,0.000217019062841515
651,0.00272274017333984,0.000227474815227244
652,0.00287866592407227,0.000211113425356325
653,0.00289058685302734,0.000204228859428109
654,0.00292396545410156,0.000220086048687832
655,0.00282382965087891,0.000221786184084327
656,0.00230026245117187,0.000243644657615797
657,0.00399494171142578,0.000204935712696617
658,0.00322914123535156,0.000212603075445091
659,0.00286293029785156,0.00023709885600016
660,0.00285005569458008,0.000227818402793484
661,0.00276803970336914,0.000222212255172067
662,0.00272989273071289,0.000211595380807043
663,0.00278091430664062,0.000232422777081991
664,0.00285959243774414,0.000243764080302313
665,0.00269603729248047,0.000211938963692761
666,0.00278854370117187,0.000218984057971532
667,0.00281381607055664,0.000205059937681083
668,0.00271511077880859,0.000225861811341456
669,0.00282907485961914,0.000222077148077732
670,0.00278425216674805,0.000197385242696988
671,0.00276374816894531,0.000223013022650586
672,0.00274181365966797,0.000246195785717293
673,0.00270748138427734,0.000228173431205935
674,0.00272417068481445,0.000211724289728373
675,0.00272321701049805,0.000215369983494496
676,0.00266599655151367,0.000231399202833932
677,0.0025935173034668,0.000225353866524621
678,0.00271415710449219,0.000214052619899679
679,0.00257778167724609,0.000215505075233352
680,0.00258350372314453,0.000217178256816708
681,0.00264739990234375,0.000204687036550612
682,0.00266075134277344,0.000209448245266737
683,0.00261116027832031,0.000214239491270103
684,0.00262117385864258,0.000213801786033483
685,0.00268220901489258,0.000237723290380565
686,0.00265073776245117,0.000222645680904507
687,0.0026860237121582,0.000220972739379284
688,0.00266742706298828,0.000232680898672708
689,0.00261449813842773,0.000232403210734032
690,0.0025782585144043,0.00020701104163338
691,0.00262641906738281,0.000200062597293005
692,0.00262022018432617,0.000225724859469937
693,0.00257539749145508,0.000228571681641983
694,0.00256443023681641,0.000217035825600806
695,0.00255250930786133,0.000211190956659949
696,0.00252008438110352,0.000222576226056539
697,0.00261545181274414,0.000231053067507591
698,0.00256156921386719,0.000215200999566167
699,0.00253582000732422,0.000196937787289298
700,0.00256204605102539,0.000207120849006626
701,0.00245237350463867,0.000225543471773322
702,0.0025324821472168,0.000215859288799974
703,0.00247716903686523,0.000210526710435513
704,0.00240182876586914,0.0002006663111394
705,0.00240421295166016,0.000202946734549952
706,0.00244140625,0.000211031555856022
707,0.00241327285766602,0.000210297620929031
708,0.00243997573852539,0.000209244055933135
709,0.00240707397460937,0.000227330833685493
710,0.00245189666748047,0.000216624764587699
711,0.00234842300415039,0.000220416396802294
712,0.00238609313964844,0.00022046590632601
713,0.00238180160522461,0.000218817865060277
714,0.00236272811889648,0.000233434071125068
715,0.00231122970581055,0.000229159822133743
716,0.00238895416259766,0.000216229747326178
717,0.00233650207519531,0.000199971655610369
718,0.00239801406860352,0.000228288995356746
719,0.00238752365112305,0.000223473385606321
720,0.00234889984130859,0.000203103524572108
721,0.00237464904785156,0.00021394211918513
722,0.00237655639648437,0.000228543826700306
723,0.00237035751342773,0.00022250266199825
724,0.00231790542602539,0.000223359401796862
725,0.00239276885986328,0.000212384790484465
726,0.0023951530456543,0.000220478281969811
727,0.00230503082275391,0.000220602000223175
728,0.00231170654296875,0.00021226056754948
729,0.00229597091674805,0.000227922176138844
730,0.00236368179321289,0.000232719983029336
731,0.00239086151123047,0.000219411425304711
732,0.00239038467407227,0.000231241932823693
733,0.00228404998779297,0.00021580029358085
734,0.00238418579101562,0.00021338449510112
735,0.00230264663696289,0.000219531601932267
736,0.00238037109375,0.000214243736452378
737,0.00233173370361328,0.00020905271921119
738,0.00231742858886719,0.00021730385389139
739,0.00228691101074219,0.000217684388396993
740,0.00230598449707031,0.000218664024159454
741,0.00230789184570312,0.000213759242647124
742,0.00231838226318359,0.000223896245998722
743,0.00223493576049805,0.000233414589550451
744,0.00226640701293945,0.000217165693114114
745,0.00221776962280273,0.000219502599804929
746,0.002227783203125,0.000221083839894916
747,0.00228166580200195,0.000234979623254091
748,0.00223541259765625,0.000230781302829806
749,0.00223016738891602,0.000223387903201756
750,0.00228214263916016,0.000236365057782464
751,0.00229406356811523,0.000230931009899401
752,0.00223445892333984,0.0002407871845606
753,0.00224924087524414,0.000250749252686755
754,0.00229406356811523,0.000232661354032253
755,0.00215911865234375,0.000237895391532754
756,0.00223398208618164,0.000216351691283996
757,0.00226640701293945,0.000236495848124714
758,0.00231027603149414,0.000233141676576191
759,0.00225925445556641,0.000219436294834437
760,0.00226163864135742,0.000215095317194933
761,0.00226783752441406,0.000230875865957245
762,0.00227928161621094,0.000238959652150968
763,0.00214862823486328,0.000220676197882168
764,0.00232791900634766,0.0002341615181461
765,0.00227594375610352,0.000238559681146541
766,0.00225019454956055,0.000242514709625722
767,0.00224161148071289,0.000225014599632332
768,0.00231552124023437,0.000219407280109027
769,0.00219583511352539,0.000236722636338474
770,0.00215721130371094,0.00020981268444785
771,0.00218868255615234,0.000208268147629335
772,0.00220012664794922,0.000198102741983805
773,0.00217437744140625,0.000222052574319501
774,0.00221633911132812,0.000217809693617799
775,0.00223875045776367,0.000228782473295119
776,0.00219535827636719,0.000234720154768603
777,0.00216007232666016,0.000233624904585956
778,0.00216484069824219,0.000226593499231308
779,0.00216054916381836,0.000219208218535416
780,0.00208902359008789,0.000209196238159078
781,0.00211715698242187,0.000229207443058055
782,0.00209331512451172,0.00023328597035546
783,0.0022130012512207,0.000223770284668922
784,0.00209903717041016,0.000225410361361776
785,0.0021061897277832,0.000223701178988735
786,0.00208377838134766,0.000232762968241543
787,0.00213909149169922,0.000220375130369266
788,0.00216817855834961,0.000240431868196974
789,0.00213050842285156,0.000237964197142734
790,0.00211191177368164,0.000226324416720449
791,0.00209760665893555,0.000224524992661997
792,0.00210046768188477,0.00023215653345763
793,0.00208950042724609,0.000234177053824879
794,0.00216770172119141,0.000218168503048869
795,0.00212669372558594,0.00023413044369594
796,0.00210142135620117,0.000221859985711599
797,0.00213527679443359,0.000223204616380839
798,0.00215387344360352,0.000234720154768603
799,0.002105712890625,0.000220214117391535
800,0.00214815139770508,0.000233784461862508
801,0.0021510124206543,0.000231815452351553
802,0.00219202041625977,0.000242619694353421
803,0.00207281112670898,0.000233406796465309
804,0.00215864181518555,0.000226854244406225
805,0.00210380554199219,0.000247139689633743
806,0.00216865539550781,0.000245441013415916
807,0.002105712890625,0.000247036625804684
808,0.00218534469604492,0.000236714952160251
809,0.00217580795288086,0.000238201042115281
810,0.00209712982177734,0.000239647558798652
811,0.0021514892578125,0.000234596128258084
812,0.00202560424804687,0.000228583618435037
813,0.00206708908081055,0.000237394038890318
814,0.00198125839233398,0.000237696507890919
815,0.00206232070922852,0.000238864481706726
816,0.00208759307861328,0.000247940649918959
817,0.00207996368408203,0.000238185768901485
818,0.00208902359008789,0.000250495226431
819,0.00205421447753906,0.000235401132515587
820,0.00204658508300781,0.000240288080535329
821,0.00209760665893555,0.000248914477408565
822,0.00206708908081055,0.000248870627416609
823,0.00204038619995117,0.000237531920632123
824,0.00194883346557617,0.000221346966513001
825,0.00207376480102539,0.000231568148968143
826,0.00201177597045898,0.000243170120554456
827,0.00201940536499023,0.000242799562560392
828,0.00206613540649414,0.000246047973632812
829,0.00194263458251953,0.0002297424982947
830,0.00212574005126953,0.00023321968429965
831,0.00191497802734375,0.000231913515526896
832,0.00205850601196289,0.000239347555398573
833,0.00204229354858398,0.000243054147997846
834,0.00200271606445312,0.000222625255257381
835,0.00202465057373047,0.000217496295206639
836,0.0019993782043457,0.000239670328523525
837,0.00202512741088867,0.000261897790042045
838,0.00203657150268555,0.000237853333861612
839,0.00207805633544922,0.000244148075466914
840,0.0020289421081543,0.000252786664495115
841,0.00196743011474609,0.000255078911250686
842,0.0019526481628418,0.000259651734546534
843,0.00202751159667969,0.000232684807403798
844,0.00195884704589844,0.000236538147163765
845,0.00193071365356445,0.000226034896347436
846,0.00204801559448242,0.000225612013154051
847,0.00200843811035156,0.000234472036142415
848,0.00206136703491211,0.00022499034670687
849,0.00206851959228516,0.000230296057367873
850,0.0019831657409668,0.000240117694317168
851,0.0019078254699707,0.000238875904162043
852,0.00192451477050781,0.000230990078086074
853,0.00194549560546875,0.000242780832506399
854,0.00197172164916992,0.000241300333210509
855,0.00200843811035156,0.000256295425906995
856,0.00198459625244141,0.00024396174553405
857,0.00197982788085937,0.000248972932050927
858,0.00199270248413086,0.000260539913567047
859,0.00199413299560547,0.000242480954881443
860,0.00192117691040039,0.000239636173124891
861,0.0019073486328125,0.000254814924502025
862,0.00194978713989258,0.000258514352959898
863,0.00193881988525391,0.000228889783085501
864,0.00189447402954102,0.000228989099164166
865,0.00187301635742187,0.0002516182528749
866,0.00188541412353516,0.000221305873601385
867,0.00181436538696289,0.000197293066899163
868,0.00189828872680664,0.000213937868017845
869,0.00183582305908203,0.000207734697654778
870,0.00189208984375,0.000207909750098122
871,0.00179815292358398,0.000250901544989095
872,0.00187587738037109,0.000242990526644761
873,0.00185346603393555,0.000224083025874079
874,0.00189113616943359,0.000221572841299882
875,0.00185394287109375,0.00023358986522999
876,0.00182819366455078,0.00024218446134576
877,0.00183677673339844,0.00024381630933406
878,0.00182533264160156,0.0002601486493302
879,0.00172853469848633,0.00025877456579451
880,0.00184059143066406,0.000243244912215116
881,0.00181388854980469,0.000228555764948141
882,0.00178813934326172,0.000247227995862014
883,0.0018153190612793,0.000242308357197298
884,0.0018768310546875,0.000218988211178326
885,0.00172758102416992,0.00025871832573608
886,0.00180149078369141,0.000248899861602944
887,0.00183773040771484,0.000237240742969069
888,0.00179529190063477,0.000229016899948107
889,0.00176572799682617,0.000245314992258751
890,0.00181913375854492,0.000259497567848463
891,0.0017547607421875,0.000269807257000076
892,0.00179386138916016,0.00024305788991177
893,0.00171089172363281,0.000237719464495357
894,0.00188922882080078,0.000244274698636429
895,0.00179958343505859,0.000254921979105528
896,0.00173330307006836,0.000250233673248951
897,0.00184202194213867,0.000248329174200317
898,0.00180673599243164,0.00026657884015377
899,0.00176620483398437,0.000239206918100924
900,0.00187349319458008,0.000269638659060098
901,0.00184059143066406,0.000275728999400866
902,0.00175714492797852,0.000250073700524279
903,0.00181293487548828,0.00026334538158014
904,0.00190925598144531,0.000255911888128053
905,0.00172615051269531,0.000239803108828261
906,0.00179576873779297,0.000246520660335938
907,0.00172328948974609,0.000261814431770332
908,0.00184202194213867,0.000274459449062409
909,0.00172519683837891,0.000257718022421936
910,0.00182533264160156,0.000256678390591088
911,0.001861572265625,0.000236438155421613
912,0.00165700912475586,0.000261550288641692
913,0.00173521041870117,0.000281054147520335
914,0.00185775756835937,0.000229203475025594
915,0.0017399787902832,0.000233679399807614
916,0.00178384780883789,0.00024016314246161
917,0.00172853469848633,0.00025239779494081
918,0.00174617767333984,0.000245047909988753
919,0.00179767608642578,0.000234340116269173
920,0.00170087814331055,0.000242777086322199
921,0.00187540054321289,0.000239336155453083
922,0.00165176391601562,0.000250814532139248
923,0.00173616409301758,0.00026218933528808
924,0.00175762176513672,0.000243330894205444
925,0.00176858901977539,0.000237332732403689
926,0.00172758102416992,0.000222743697938049
927,0.00180912017822266,0.000276835080057051
928,0.00172615051269531,0.000268909101275063
929,0.00181055068969727,0.000240201009346487
930,0.00164890289306641,0.000223237211703035
931,0.00181198120117187,0.000252231983258309
932,0.00174427032470703,0.000255043253333233
933,0.00177001953125,0.000279906255002505
934,0.00146341323852539,0.000296272092269098
935,0.00163793563842773,0.000263255572163434
936,0.00166130065917969,0.000248534187116401
937,0.00176811218261719,0.000234561233986035
938,0.00168037414550781,0.000277792740106773
939,0.00179195404052734,0.000267301148091962
940,0.00173759460449219,0.000271996207732786
941,0.00164127349853516,0.000240458346019663
942,0.00168275833129883,0.000266326252558525
943,0.00174093246459961,0.000295798966004553
944,0.00151443481445312,0.00027174196184312
945,0.00178718566894531,0.000252685903926726
946,0.00162076950073242,0.000264901818057166
947,0.00150346755981445,0.000253419099283361
948,0.00175094604492187,0.000242259557304572
949,0.00161361694335937,0.000264214260268599
950,0.00183010101318359,0.000234483672568008
951,0.00176095962524414,0.000236006937453071
952,0.00177240371704102,0.000297925170026676
953,0.0015263557434082,0.000257880306719293
954,0.00170183181762695,0.000259308237993852
955,0.00173759460449219,0.000269193053139303
956,0.00176143646240234,0.000276979596873037
957,0.00174188613891602,0.000261842220809499
958,0.00156354904174805,0.000290512427179494
959,0.00169086456298828,0.000274101328570399
960,0.00164508819580078,0.000267076488052856
961,0.0016932487487793,0.000245996218420454
962,0.00176239013671875,0.000290274399751427
963,0.00162410736083984,0.000286439061645474
964,0.00166749954223633,0.00027433349701104
965,0.00147151947021484,0.000249950015111394
966,0.00179195404052734,0.000288653128545009
967,0.00183868408203125,0.000244110820858401
968,0.00154209136962891,0.000316194455322187
969,0.00188446044921875,0.000323670937385209
970,0.00167179107666016,0.000312456075740436
971,0.00179767608642578,0.000257830926659287
972,0.00158214569091797,0.000243711840077545
973,0.001922607421875,0.000270056588784217
974,0.00160598754882812,0.000264104084914205
975,0.00156068801879883,0.000253634341613676
976,0.00162363052368164,0.000299307915238861
977,0.00171804428100586,0.000259476538020004
978,0.00174522399902344,0.000293682143751591
979,0.00168180465698242,0.000317434618463119
980,0.00171184539794922,0.000299465883822545
981,0.00162076950073242,0.000243087823149558
982,0.00174808502197266,0.00026967913217854
983,0.00161123275756836,0.000293142793536381
984,0.00173711776733398,0.000261111778408608
985,0.00177860260009766,0.000273390333756882
986,0.00163984298706055,0.000240375120184336
987,0.0015568733215332,0.000253059955230446
988,0.00172090530395508,0.000290825324354801
989,0.00198793411254883,0.000266544720682466
990,0.00186395645141602,0.000391104150991751
991,0.00171995162963867,0.00025045165320252
992,0.00179052352905273,0.000276782509779316
993,0.00162696838378906,0.000283836292047099
994,0.00159597396850586,0.000281855536064953
995,0.00183486938476562,0.000248548824425352
996,0.00138235092163086,0.000267382795850755
997,0.00207233428955078,0.000350028356373073
998,0.00206279754638672,0.000390172860616368
999,0.00183439254760742,0.000316171443462666
1000,0.00182247161865234,0.0003290328423125
1001,0.00195932388305664,0.000257802705235532
1002,0.00170993804931641,0.000267804246051115
1003,0.00169277191162109,0.000277956392130504
1004,0.00185441970825195,0.000382726506383789
1005,0.00154495239257812,0.000327092217482716
1006,0.00196552276611328,0.000320928057370454
1007,0.00166797637939453,0.000388640713400994
1008,0.0018153190612793,0.000280678519070432
1009,0.00167942047119141,0.000296370309441452
1010,0.00192451477050781,0.000284335722395198
1011,0.00171613693237305,0.000319456697373113
1012,0.00202655792236328,0.000390629470322779
1013,0.00189495086669922,0.000389127169327421
1014,0.00182580947875977,0.000506119910460892
1015,0.00199460983276367,0.000488519610399845
1016,0.00145053863525391,0.000371888965055967
1017,0.00191640853881836,0.000453580177585673
1018,0.00188779830932617,0.000411527871993785
1019,0.00152826309204102,0.000303658049200983
1020,0.00181007385253906,0.000303454312154409
1021,0.00247335433959961,0.000411598587325864
1022,0.00156593322753906,0.000411262581204889
1023,0.00241613388061523,0.000405624493256423
1024,0.00219154357910156,0.000467086275822026
1025,0.00210094451904297,0.000442439107281432
1026,0.00250482559204102,0.000401232897668452
1027,0.00174617767333984,0.000490570661624532
1028,0.00195932388305664,0.000538548254492185
1029,0.00225210189819336,0.000509929576721813
1030,0.00166845321655273,0.000389220648841904
1031,0.00206422805786133,0.000439816563047233
1032,0.00196075439453125,0.000414145081872459
1033,0.0020451545715332,0.000619298213915426
1034,0.00215005874633789,0.000601114470825297
1035,0.00226402282714844,0.000563517430177116
1036,0.00253725051879883,0.000617014753636032
1037,0.00229787826538086,0.000671505917458218
1038,0.00116348266601562,0.000528456057915498
1039,0.00296878814697266,0.00048214061207862
1040,0.00249958038330078,0.000671960845303501
1041,0.00215816497802734,0.000569451384183871
1042,0.00133752822875977,0.000539290810003416
1043,0.00306892395019531,0.000604746834236704
1044,0.00165224075317383,0.000702070133686972
1045,0.00263452529907227,0.000669780891531024
1046,0.00218772888183594,0.000758463125542566
1047,0.002716064453125,0.000647656511167513
1048,0.00243473052978516,0.000686825622671409
1049,0.00309324264526367,0.000667528423520543
1050,0.00152730941772461,0.00072260073500119
1051,0.00201177597045898,0.000812539472217199
1052,0.00342512130737305,0.00105567223883611
1053,0.00313615798950195,0.000969623710041336
1054,0.00169754028320312,0.00072316438620624
1055,0.00235319137573242,0.000593415366005338
1056,0.00194787979125977,0.00112543267300939
1057,0.003662109375,0.000833666282937484
1058,0.00221061706542969,0.000970178839596713
1059,0.00337934494018555,0.00081988485292703
1060,0.00250959396362305,0.000940506628935441
1061,0.00366783142089844,0.00108892068603193
1062,0.00308847427368164,0.00119001436225104
1063,0.00466108322143555,0.0014701191957515
1064,0.00254011154174805,0.00138821440617906
1065,0.00361490249633789,0.00126932582660433
1066,0.00183773040771484,0.00106808798618983
1067,0.00260639190673828,0.00117529826050135
1068,0.00243997573852539,0.0015330337625252
1069,0.00350475311279297,0.00131159033643765
1070,0.00224399566650391,0.00114494311274936
1071,0.00119352340698242,0.00121984451615437
1072,0.00274467468261719,0.00160743213478791
1073,0.00131416320800781,0.00144371047027769
1074,0.00332832336425781,0.0012575778890466
1075,0.000566005706787109,0.0015176167918892
1076,0.00335693359375,0.00190960559826025
1077,0.00123977661132812,0.00132446376958721
1078,0.00311279296875,0.00160246346880624
1079,0.00222921371459961,0.00191338157219449
1080,0.00301742553710937,0.0018958085954977
1081,0.00542879104614258,0.00240087239247296
1082,0.00331211090087891,0.00236850618073847
1083,0.0032200813293457,0.0018244943716875
1084,0.00480365753173828,0.00141557653788378
1085,0.000236034393310547,0.00207160189800746
1086,0.00531530380249023,0.00206055808403257
1087,0.00392293930053711,0.00204154386483561
1088,0.00259876251220703,0.00256138670974899
1089,0.00450611114501953,0.00302247301632343
1090,0.00439596176147461,0.00206935284523495
1091,-0.000924110412597656,0.00251867102198626
1092,0.00503730773925781,0.00239533829584932
1093,0.00199222564697266,0.0025016969643456
1094,0.00298833847045898,0.00248933476672941
1095,0.00781822204589844,0.0021369387950953
1096,-0.000123023986816406,0.00273260161249738
1097,0.00337505340576172,0.00246919080565278
1098,0.00153017044067383,0.00213230317011272
1099,0.00278425216674805,0.00275255190235181
1100,-0.0014495849609375,0.00207878251537188
