Wavelength (nm),Absorbance (AU),Std.Dev.
190,0.820915222167969,0.238101078143477
191,0.713753700256348,0.383141201355037
192,1.37375831604004,0.789816316907371
193,1.30263900756836,0.42034408280505
194,0.752772808074951,0.169114573809317
195,1.14661121368408,0.190111412711505
196,1.33758115768433,0.233339182462495
197,1.14306592941284,0.166190739445498
198,1.13018417358398,0.133927990140108
199,1.22534704208374,0.545338242587227
200,2.202965259552,1.13740985219709
201,1.63240671157837,0.536594213171718
202,1.87086582183838,0.090644255598455
203,1.98120498657227,0.0431231412625218
204,2.08127212524414,0.0154723820131148
205,2.11243581771851,0.0109612071737557
206,2.07236862182617,0.00759501531443706
207,2.11814785003662,0.0045562243347073
208,2.11146020889282,0.00504417810336777
209,2.11615896224976,0.00494996622367856
210,2.12768507003784,0.00428790977844203
211,2.15205955505371,0.00545343229307893
212,2.17344284057617,0.00563906712033745
213,2.1796407699585,0.00651534212079255
214,2.18508386611938,0.00642103187799494
215,2.19258499145508,0.00718428125042372
216,2.21673536300659,0.00820485959559975
217,2.2166895866394,0.00862347058543698
218,2.21486520767212,0.00750992892599951
219,2.1869740486145,0.00648180715434002
220,2.19178438186645,0.00442473311777858
221,2.15651082992554,0.00319233414177305
222,2.09386253356934,0.0036101146947388
223,2.05468416213989,0.00598253512672286
224,2.02660083770752,0.00385356178778073
225,1.97133684158325,0.00354056518854326
226,1.91837596893311,0.00285873321459888
227,1.85968112945557,0.00181784634262068
228,1.80419015884399,0.00164335103850067
229,1.74318027496338,0.00211294287477512
230,1.68205308914185,0.00180402514865891
231,1.63392114639282,0.00145127047875057
232,1.58335828781128,0.000788305136296966
233,1.53332090377808,0.000604181093301986
234,1.4896993637085,0.000929409322072819
235,1.45011234283447,0.000766934425834822
236,1.41192197799683,0.000694819645387419
237,1.37814331054687,0.000692575071568006
238,1.34853744506836,0.000691081657834297
239,1.32480096817017,0.000475293521947404
240,1.30092287063599,0.000477386158567101
241,1.28107500076294,0.000431069230528729
242,1.26662492752075,0.000493026563153183
243,1.25533962249756,0.000469634009797781
244,1.24644374847412,0.000450990154157365
245,1.24303960800171,0.000427126867825047
246,1.2432975769043,0.000568671444790396
247,1.24570751190186,0.000499536027065151
248,1.25110769271851,0.000797134825711352
249,1.26443099975586,0.000802284434836625
250,1.2807354927063,0.000674673186323064
251,1.3016939163208,0.00113859607581651
252,1.32478713989258,0.000966572326053053
253,1.35228395462036,0.000859010196330653
254,1.37793397903442,0.00127470265332722
255,1.40272617340088,0.00196275720095404
256,1.4366307258606,0.00185791030663228
257,1.46936464309692,0.00190307137596989
258,1.49910497665405,0.0012335105416161
259,1.52833414077759,0.00145579563602154
260,1.5493597984314,0.00183003715216857
261,1.56584358215332,0.00229059785967331
262,1.57761573791504,0.00273639059710204
263,1.58029556274414,0.00215543560875043
264,1.59257507324219,0.00308521998791942
265,1.59882068634033,0.00256733377089879
266,1.58242893218994,0.00300981306450829
267,1.55026340484619,0.00184958931852623
268,1.50597238540649,0.00185402136114552
269,1.45258808135986,0.00177658442112157
270,1.39547967910767,0.000979092420348506
271,1.3424973487854,0.00135571571540779
272,1.30050182342529,0.000938725614100832
273,1.24411630630493,0.000581600609940694
274,1.16784477233887,0.000559825506987076
275,1.07464694976807,0.000511624717080658
276,0.970681190490723,0.000744501478204371
277,0.869117259979248,0.00046992828128139
278,0.778799533843994,0.000353811886109025
279,0.700287342071533,0.000329811410251438
280,0.636015892028809,0.000324024795922576
281,0.583115577697754,0.000254807785929249
282,0.540300369262695,0.000285599584792771
283,0.505531311035156,0.000279795757562202
284,0.476800441741943,0.000256252838946236
285,0.453854084014893,0.000228575660642264
286,0.435149192810059,0.000244185324391605
287,0.419232845306397,0.000213818801017875
288,0.406595230102539,0.000218026718736177
289,0.396934032440186,0.000207690911490336
290,0.388883590698242,0.000186754659442779
291,0.382709980010986,0.00020578603525009
292,0.378155708312988,0.000210768496728987
293,0.374803066253662,0.000190973133034714
294,0.372603893280029,0.00022553540671202
295,0.370949268341064,0.000203166206700973
296,0.370523929595947,0.000152739806845424
297,0.37124490737915,0.000182931539262734
298,0.372377872467041,0.000196160398252576
299,0.373775482177734,0.000150544672683824
300,0.376284599304199,0.000199370400125706
301,0.379285335540771,0.000287592503690952
302,0.382282733917236,0.00025389955585165
303,0.386168479919434,0.000250698468027462
304,0.389938354492187,0.000233800022596142
305,0.394675731658936,0.000277576571697605
306,0.399966239929199,0.000224050553602652
307,0.404821872711182,0.00016601878489264
308,0.410192966461182,0.000240552885880841
309,0.415566444396973,0.000304262463514747
310,0.421214103698731,0.000269503704767831
311,0.427242755889893,0.00023431682858179
312,0.432514667510986,0.000260071724686574
313,0.438520431518555,0.000256125035577309
314,0.444196701049805,0.000255128823962493
315,0.449573993682861,0.000208455841513993
316,0.455351829528809,0.000224261539321033
317,0.460882186889648,0.000260267488150264
318,0.466320991516113,0.000254807785929249
319,0.470721244812012,0.000297509704676236
320,0.476037502288818,0.000274074782511689
321,0.480381965637207,0.000301481778083484
322,0.484555244445801,0.000226882306782491
323,0.488337516784668,0.00025365585580117
324,0.491937637329102,0.000276512930237713
325,0.495213508605957,0.000246033187540216
326,0.497666835784912,0.000210971210631602
327,0.50044584274292,0.000240170716316213
328,0.501980304718018,0.000329458245743506
329,0.504480838775635,0.000322871929280346
330,0.504956245422363,0.00024110048604081
331,0.506026744842529,0.000205037760168101
332,0.505810260772705,0.00026748482050216
333,0.504828929901123,0.00026644233605339
334,0.504447937011719,0.000282455085349018
335,0.503535747528076,0.000229052638855074
336,0.502508163452148,0.000217521383696028
337,0.499502658843994,0.000210850468370512
338,0.497560977935791,0.000190142665871912
339,0.494458675384522,0.000239518489470923
340,0.490474700927734,0.000280081661337044
341,0.487033367156982,0.000229457290765918
342,0.482614517211914,0.000207322742615924
343,0.478192329406738,0.00024221074757979
344,0.473513126373291,0.000316826626477754
345,0.467733383178711,0.000268001148483382
346,0.461859226226807,0.000230311853791334
347,0.455099582672119,0.000226155574879114
348,0.448907375335693,0.000222330917870994
349,0.442025184631348,0.000199653033508895
350,0.434595108032227,0.000215158732846803
351,0.426963329315186,0.000215272833943667
352,0.419547557830811,0.000364018873232568
353,0.411289215087891,0.000227426831508128
354,0.4025559425354,0.000216490371545163
355,0.394660949707031,0.000257746253117871
356,0.384983062744141,0.000297485247468363
357,0.376960754394531,0.000271601355429973
358,0.367032051086426,0.000287541900162
359,0.357962131500244,0.000358063750077449
360,0.348410129547119,0.000341228881690541
361,0.339500427246094,0.000275900468574425
362,0.330032348632812,0.00027794984789958
363,0.319907188415527,0.000259160885815216
364,0.311151027679443,0.000279281695827074
365,0.30259370803833,0.000279281695827074
366,0.294822692871094,0.00029288206208714
367,0.288050174713135,0.000277989110974229
368,0.280517578125,0.000230883744469625
369,0.272664070129395,0.000186813090270545
370,0.264684200286865,0.000183447875307952
371,0.256717681884766,0.000246918785895383
372,0.248753547668457,0.000218168503048869
373,0.240631103515625,0.00020264625526876
374,0.23301362991333,0.000228937460180221
375,0.22529411315918,0.000196090838647694
376,0.217934131622314,0.000202066462188543
377,0.211060047149658,0.000235528596650042
378,0.203495025634766,0.000233133874368248
379,0.196191310882568,0.000199256321634209
380,0.189534664154053,0.000247852597598957
381,0.183082580566406,0.000260832976579692
382,0.176876544952393,0.000248101998008867
383,0.170449256896973,0.000192845114938116
384,0.164606094360352,0.000198400934203275
385,0.15831995010376,0.000213397281420759
386,0.152648448944092,0.000216010916806902
387,0.147040367126465,0.000220024053198666
388,0.141337871551514,0.000231917437191444
389,0.136027812957764,0.000246719803421328
390,0.131333827972412,0.000191989586367212
391,0.126180171966553,0.000251133431863904
392,0.121031761169434,0.000230745831665906
393,0.116408824920654,0.000213814547398717
394,0.112258911132812,0.000227234795307533
395,0.108347415924072,0.000231835068304976
396,0.103628158569336,0.000196554104362922
397,0.099729061126709,0.000198134876554651
398,0.0955395698547363,0.000164795363390296
399,0.0914735794067383,0.000182508449003688
400,0.0886220932006836,0.000196951641350397
401,0.0850467681884766,0.000165758363108955
402,0.0816230773925781,0.000211814479293694
403,0.0782241821289063,0.000180730718804173
404,0.074821949005127,0.000252123786454816
405,0.0718269348144531,0.000246328740758123
406,0.0690135955810547,0.000256259937264514
407,0.0664405822753906,0.000247507424398981
408,0.0633554458618164,0.000248072669798113
409,0.0608124732971191,0.000215732850718485
410,0.0584802627563477,0.000257993139936995
411,0.055635929107666,0.000204455852161016
412,0.0533194541931152,0.000224707202494779
413,0.050929069519043,0.000225809457198315
414,0.04876708984375,0.000158016668558966
415,0.0466403961181641,0.000178319246755321
416,0.0450582504272461,0.000207024221593386
417,0.0424928665161133,0.000199470735229913
418,0.0409836769104004,0.000272777529392446
419,0.0392270088195801,0.000252894577697254
420,0.0371189117431641,0.000214307404095447
421,0.0356860160827637,0.000214222509699748
422,0.0340976715087891,0.000198739869952143
423,0.0326285362243652,0.000208926515112108
424,0.0310745239257812,0.000269483455794906
425,0.0300369262695312,0.000219307771907783
426,0.0283169746398926,0.000224828593677797
427,0.0271830558776855,0.000165752876147464
428,0.0259256362915039,0.000177403930791148
429,0.0249652862548828,0.000202695618250347
430,0.0230245590209961,0.000219924824065598
431,0.0222549438476562,0.000233905030471455
432,0.0213756561279297,0.000212071952418681
433,0.0200166702270508,0.000162158289389284
434,0.019310474395752,0.000155927938043494
435,0.0185456275939941,0.000188417664217038
436,0.0174307823181152,0.000196461538612115
437,0.0166964530944824,0.000207401690964786
438,0.01544189453125,0.000189106667449119
439,0.0149850845336914,0.000181288445697089
440,0.0141654014587402,0.000167567389213521
441,0.0133051872253418,0.000177583274238523
442,0.0128130912780762,0.000152435823006262
443,0.0123839378356934,0.000234052739520791
444,0.0115103721618652,0.000206962707932366
445,0.0108580589294434,0.000223147563110306
446,0.0106306076049805,0.000253619997808116
447,0.0098261833190918,0.000209791009359781
448,0.00948047637939453,0.000183055791473861
449,0.00883674621582031,0.000230619667787197
450,0.00837516784667969,0.000207226209343583
451,0.00796270370483398,0.000168357959065657
452,0.00763654708862305,0.000200634582015339
453,0.00725746154785156,0.0001717328876319
454,0.0067896842956543,0.000170891412522481
455,0.00658750534057617,0.000205414452252156
456,0.00598478317260742,0.00017767543752173
457,0.00586938858032227,0.000173017654053435
458,0.00541448593139648,0.000180614938372194
459,0.00508356094360352,0.000156803315550818
460,0.00493860244750977,0.000186550007420636
461,0.0047755241394043,0.000174071035741926
462,0.00450611114501953,0.000210733972814467
463,0.004058837890625,0.000203121435725595
464,0.00369453430175781,0.000195705495275584
465,0.00380420684814453,0.000193184382372257
466,0.00351476669311523,0.000175833338397668
467,0.00351285934448242,0.000215855075390474
468,0.00310564041137695,0.000169874534267362
469,0.00301074981689453,0.000198712410211777
470,0.00290727615356445,0.000181499030571007
471,0.00279998779296875,0.000200312474031993
472,0.00251579284667969,0.000196697495188476
473,0.00244379043579102,0.000193090201213007
474,0.0023503303527832,0.000167849388967669
475,0.00227832794189453,0.000163462671100734
476,0.00217437744140625,0.000175527896692405
477,0.00193262100219727,0.000173872378159764
478,0.00181722640991211,0.000142078270350712
479,0.00167417526245117,0.00018441210884509
480,0.00179815292358398,0.000195816997798318
481,0.00166797637939453,0.000172896708638055
482,0.0014338493347168,0.00018446635132764
483,0.00140857696533203,0.00019698396370375
484,0.0012822151184082,0.00019103979531172
485,0.00112533569335937,0.000208001593655766
486,0.00115776062011719,0.000187163292163517
487,0.00136327743530273,0.00015249547543987
488,0.00119161605834961,0.000171428098057719
489,0.00118541717529297,0.000201326950205908
490,0.00100803375244141,0.000184860363313545
491,0.00116205215454102,0.000166961111068836
492,0.00100469589233398,0.000216717111459972
493,0.000896453857421875,0.000214955736906164
494,0.000858783721923828,0.000210992764478741
495,0.000786781311035156,0.000209582814459643
496,0.000710010528564453,0.000220824518408299
497,0.000737667083740234,0.000184835762171173
498,0.000914573669433594,0.000190706250905669
499,0.000690460205078125,0.000217249437407337
500,0.000661849975585938,0.000194203311746015
501,0.000811100006103516,0.00016946178096692
502,0.000525951385498047,0.000205370171397936
503,0.0006866455078125,0.000174269466865546
504,0.000645637512207031,0.000165601913462856
505,0.000612735748291016,0.000203582105205228
506,0.000643730163574219,0.000198107332955914
507,0.000479698181152344,0.000187138993762573
508,0.000599384307861328,0.000182343925885714
509,0.000561714172363281,0.000207463074465559
510,0.000618457794189453,0.000190639471995823
511,0.000561237335205078,0.000179493566223428
512,0.000640392303466797,0.000167825003871604
513,0.000524520874023438,0.000204864693170916
514,0.000560283660888672,0.000205033324377644
515,0.000471591949462891,0.000168768022964728
516,0.000648975372314453,0.000156652437080427
517,0.000528335571289063,0.000181378726295369
518,0.000512123107910156,0.00018097210893075
519,0.000586986541748047,0.000214472851514749
520,0.000535488128662109,0.000185096367916246
521,0.000519275665283203,0.000168581999160647
522,0.000244140625,0.000182009436616284
523,0.000595569610595703,0.000203541894103303
524,0.000524997711181641,0.000207498142598748
525,0.000574588775634766,0.000192297258390971
526,0.000564098358154297,0.000178324347055551
527,0.000623703002929688,0.000184481141964004
528,0.000662326812744141,0.000155120924845123
529,0.000470161437988281,0.000183933096305557
530,0.000678062438964844,0.000204926836601903
531,0.000528812408447266,0.000200593780052717
532,0.000557422637939453,0.000201259176283118
533,0.000590324401855469,0.000199206106401778
534,0.000520706176757813,0.000191643458137747
535,0.000615596771240234,0.000188064962081047
536,0.000593662261962891,0.000200035319129402
537,0.000603199005126953,0.000203876744285429
538,0.000508785247802734,0.000206223112804802
539,0.000667095184326172,0.000195128383878466
540,0.000546455383300781,0.000217554830514662
541,0.000605106353759766,0.000224273705518168
542,0.000614643096923828,0.000193193797962971
543,0.000676155090332031,0.000188195490584768
544,0.000683784484863281,0.000190386453941603
545,0.000403404235839844,0.000194395228487392
546,0.000668525695800781,0.000224070849323764
547,0.000563621520996094,0.000212500381042072
548,0.000605583190917969,0.000190954082395429
549,0.000692844390869141,0.000199023398754052
550,0.000571727752685547,0.000208311812461488
551,0.000608444213867188,0.000174264247888654
552,0.000644207000732422,0.000202641767128713
553,0.000485420227050781,0.000241850001572091
554,0.000504970550537109,0.000248439023587515
555,0.000583648681640625,0.000208333641445657
556,0.000577449798583984,0.000196581865588695
557,0.000562191009521484,0.000209004857661619
558,0.000517845153808594,0.000182906678691663
559,0.000566005706787109,0.00020296465953979
560,0.000646591186523438,0.000192036952609358
561,0.000486850738525391,0.000175071332461222
562,0.000695705413818359,0.000182568238832975
563,0.000653743743896484,0.000206359785148202
564,0.00054931640625,0.000207037400714359
565,0.000567913055419922,0.000209487322647332
566,0.00061798095703125,0.000204295648177732
567,0.000627517700195313,0.000189788377328579
568,0.000603675842285156,0.000213703923583134
569,0.000530719757080078,0.000217199194706062
570,0.000570774078369141,0.000231654538879362
571,0.000579357147216797,0.000217391728668606
572,0.000528812408447266,0.000202273400757383
573,0.000590801239013672,0.000223855621055815
574,0.000504016876220703,0.000221071498150418
575,0.000578403472900391,0.000184318379685874
576,0.000465869903564453,0.0001993247765639
577,0.000597476959228516,0.00020105571743922
578,0.000503063201904297,0.00020520181700629
579,0.000647544860839844,0.000188866043013386
580,0.000564098358154297,0.000213064587729388
581,0.000593185424804688,0.000226561386777757
582,0.000521659851074219,0.000196836161046508
583,0.000721931457519531,0.000197376027054305
584,0.000580310821533203,0.000199402330407919
585,0.000444412231445313,0.000206742866876999
586,0.000634193420410156,0.000214460129321646
587,0.000615119934082031,0.000209990335779432
588,0.000532150268554688,0.000204162048829486
589,0.000584602355957031,0.0002086782363374
590,0.000515460968017578,0.000211234017310138
591,0.000586509704589844,0.000210176491704261
592,0.000549793243408203,0.000226497148212077
593,0.000494956970214844,0.000219212367495254
594,0.000565528869628906,0.000203492736410225
595,0.000566482543945313,0.00020186381701096
596,0.000507354736328125,0.000196632750989683
597,0.000536441802978516,0.000208865561702355
598,0.000504970550537109,0.000193292633974582
599,0.000385761260986328,0.000210444612684979
600,0.000451087951660156,0.000209396130748572
601,0.000399112701416016,0.000210664908012018
602,0.000469207763671875,0.00021505302970466
603,0.000421047210693359,0.000217847271129366
604,0.00048828125,0.000202605858429166
605,0.000491619110107422,0.000218971597878512
606,0.000548839569091797,0.000211225405882372
607,0.000483989715576172,0.00020405064922015
608,0.000560283660888672,0.000188296950198127
609,0.000463008880615234,0.000178645372414771
610,0.000490188598632813,0.000184323313987758
611,0.000406742095947266,0.000195123722816111
612,0.000495433807373047,0.000194179894289038
613,0.000486373901367188,0.00022524890994876
614,0.0004119873046875,0.000202138464849841
615,0.000474452972412109,0.000197523425741493
616,0.000444889068603516,0.000198010900188426
617,0.0004730224609375,0.000209061420133892
618,0.000453948974609375,0.000220738010212974
619,0.000333309173583984,0.000207388534993721
620,0.000429630279541016,0.000200053504985081
621,0.000435829162597656,0.000201958410064322
622,0.00042724609375,0.000213290705335891
623,0.00035858154296875,0.000224326418081099
624,0.000433921813964844,0.000206505175665718
625,0.000351428985595703,0.000227518791413167
626,0.000447750091552734,0.000196789949950426
627,0.000547409057617188,0.000176761933075838
628,0.000687122344970703,0.000188591356661784
629,0.000410079956054688,0.00019767991642141
630,0.000418663024902344,0.000230031306019744
631,0.000351428985595703,0.000203827667349129
632,0.000402927398681641,0.000199110205791371
633,0.000335693359375,0.000205294872025965
634,0.000414371490478516,0.000218239360662656
635,0.000438690185546875,0.000220989202239384
636,0.000413894653320313,0.000209665249661198
637,0.000432491302490234,0.000190094827627797
638,0.000432014465332031,0.000199365838239355
639,0.000401496887207031,0.000222637510870528
640,0.000386238098144531,0.000202996024463357
641,0.000459194183349609,0.000177311626383852
642,0.000348567962646484,0.000191363253191895
643,0.0004119873046875,0.000228687044541983
644,0.000425338745117188,0.000217843096170404
645,0.000360488891601562,0.000208202633210777
646,0.000428676605224609,0.00019251942262185
647,0.000369548797607422,0.000215441761527981
648,0.000329494476318359,0.000211190956659949
649,0.000448226928710938,0.000212645850142312
650,0.000387668609619141,0.000217613350077409
651,0.000268459320068359,0.000228025902257525
652,0.000386238098144531,0.000209791009359781
653,0.000464439392089844,0.00020208446525898
654,0.000438213348388672,0.000224273705518168
655,0.000428199768066406,0.000223265728706335
656,0.000175952911376953,0.000244185324391605
657,0.000895977020263672,0.000205768356037407
658,0.000662803649902344,0.000214031374192895
659,0.000442981719970703,0.00023892920173324
660,0.000362873077392578,0.000225402291537685
661,0.000446796417236328,0.000216750682385967
662,0.000321388244628906,0.000206624055450049
663,0.000386714935302734,0.000227038590811524
664,0.000463962554931641,0.000236518921265613
665,0.000307559967041016,0.000206064282776939
666,0.00042724609375,0.000214073863497939
667,0.000425338745117188,0.000204633709488513
668,0.000349998474121094,0.000225648291338657
669,0.00043487548828125,0.000222976315708909
670,0.000401020050048828,0.000193842369230895
671,0.000438213348388672,0.000219635149696118
672,0.000335693359375,0.000241865043398245
673,0.000384330749511719,0.000226344508550283
674,0.000357151031494141,0.000205892078647131
675,0.000423908233642578,0.000211315808371374
676,0.000373363494873047,0.000229552399315102
677,0.000375747680664062,0.00022172466396329
678,0.000383377075195312,0.000210664908012018
679,0.000448226928710938,0.000214315891685466
680,0.000321865081787109,0.00021571177049968
681,0.000394344329833984,0.000203358609578289
682,0.000306606292724609,0.00020899615438411
683,0.000391483306884766,0.000212011903323897
684,0.000303745269775391,0.000211216794103513
685,0.000424861907958984,0.000232089924829156
686,0.000368118286132812,0.000217425195432253
687,0.000379562377929687,0.00021956888475278
688,0.000401020050048828,0.000232583159046501
689,0.000338554382324219,0.000232524495550462
690,0.000337123870849609,0.000206227523003855
691,0.000386238098144531,0.000196586492078513
692,0.000410556793212891,0.000222563967068708
693,0.000277519226074219,0.000229983855686234
694,0.000360488891601562,0.000219908281523616
695,0.000329971313476562,0.000209630544053734
696,0.000320911407470703,0.000220956275292581
697,0.000369548797607422,0.00022981770236724
698,0.000393867492675781,0.000209322279637435
699,0.000355720520019531,0.000191553267391415
700,0.000369548797607422,0.000205130889610088
701,0.000380039215087891,0.00022606708358809
702,0.000364303588867187,0.000213554916416602
703,0.0003814697265625,0.000208075913510426
704,0.000300884246826172,0.00019620212217823
705,0.000358104705810547,0.000202264407830814
706,0.000284194946289062,0.000214086608645064
707,0.000316143035888672,0.000210336540508401
708,0.000367164611816406,0.000206196649629621
709,0.000319957733154297,0.000226737948990496
710,0.000380039215087891,0.000214277694882842
711,0.000298023223876953,0.000218730563232629
712,0.000329971313476562,0.000220131500949913
713,0.000330924987792969,0.000218226858049677
714,0.000371456146240234,0.000232911401571387
715,0.000288963317871094,0.000228774522419401
716,0.000348091125488281,0.000218430977782474
717,0.000241756439208984,0.000200824881564558
718,0.000429153442382813,0.000227250804522383
719,0.000252246856689453,0.000224310200150332
720,0.000289440155029297,0.00020544987006392
721,0.000280380249023437,0.000214315891685466
722,0.000315666198730469,0.000228296963141868
723,0.000277996063232422,0.000219742787609806
724,0.000323295593261719,0.000218118472050723
725,0.000319480895996094,0.000209960015705214
726,0.000355243682861328,0.000218222690352838
727,0.000359058380126953,0.000217529745882815
728,0.000201702117919922,0.000208412206857639
729,0.0002899169921875,0.000225926230555242
730,0.000352859497070312,0.000232270115856015
731,0.000329971313476562,0.000218593304201538
732,0.000270843505859375,0.000231473868656587
733,0.000331878662109375,0.000213601758441125
734,0.000277042388916016,0.000212906589696897
735,0.000272274017333984,0.000219742787609806
736,0.000354290008544922,0.000213452679955105
737,0.000346660614013672,0.000207256929352761
738,0.000342369079589844,0.000214676304067864
739,0.000322341918945312,0.000217182444556064
740,0.00037384033203125,0.000217069347235974
741,0.000311851501464844,0.000216784248113212
742,0.000360012054443359,0.000223973413089562
743,0.000272750854492187,0.000230465812179462
744,0.000342845916748047,0.000215930904182544
745,0.000276565551757812,0.00021840182950054
746,0.000303745269775391,0.000221281214191469
747,0.000306606292724609,0.000236711109977598
748,0.000282764434814453,0.000231403133214706
749,0.000263214111328125,0.000224480429985402
750,0.000365734100341797,0.000236307333147861
751,0.000345706939697266,0.000230702470614755
752,0.000348091125488281,0.000239719655507888
753,0.000341415405273437,0.000249564014187563
754,0.000363349914550781,0.000230461865813274
755,0.000339508056640625,0.00023494478593917
756,0.000252246856689453,0.000213610274069268
757,0.000343799591064453,0.000235737025661497
758,0.000302791595458984,0.000231729122429783
759,0.000295639038085937,0.000217621708730356
760,0.000318050384521484,0.000212846776073102
761,0.000362873077392578,0.00022993244010809
762,0.000290393829345703,0.000235952979795399
763,0.000271320343017578,0.000216708717915886
764,0.000379085540771484,0.000232270115856015
765,0.000264167785644531,0.000234789890889409
766,0.000309944152832031,0.000239343755477075
767,0.000342369079589844,0.000224524992661997
768,0.000352382659912109,0.000217107052888854
769,0.000329494476318359,0.000235115052631172
770,0.000280380249023437,0.000209903695376446
771,0.00028228759765625,0.000206104001758836
772,0.000332832336425781,0.000196706742620144
773,0.000270843505859375,0.000223159790039062
774,0.000323772430419922,0.000217111242001623
775,0.000321388244628906,0.000224375064839965
776,0.000283241271972656,0.00023000362784818
777,0.000313758850097656,0.00023286063239565
778,0.000351905822753906,0.000226625607134581
779,0.000205039978027344,0.000217813869217006
780,0.000288963317871094,0.000207817865950907
781,0.000283718109130859,0.000229956171803415
782,0.000280857086181641,0.000233036324728274
783,0.000282764434814453,0.000220791566901974
784,0.000219821929931641,0.000223965291489955
785,0.000248908996582031,0.000222882481614947
786,0.000244140625,0.00023110423377107
787,0.000254631042480469,0.000218239360662656
788,0.000269889831542969,0.000238189587296748
789,0.000288963317871094,0.000235339306872363
790,0.000254154205322266,0.000227086656566442
791,0.000286579132080078,0.000221453772397311
792,0.000317573547363281,0.000231186863044568
793,0.000295162200927734,0.000234056625342225
794,0.000347137451171875,0.000217792990420411
795,0.0003204345703125,0.00023095463898692
796,0.000231266021728516,0.0002188012388263
797,0.000310420989990234,0.000221663126768032
798,0.000291347503662109,0.000236161034258659
799,0.000297069549560547,0.000223013022650586
800,0.000248432159423828,0.000235987668277306
801,0.000333786010742187,0.000233153379398558
802,0.000318527221679687,0.000243252390116411
803,0.000345230102539062,0.000233414589550451
804,0.000241279602050781,0.000226107311195503
805,0.000294685363769531,0.000244906832474149
806,0.000342845916748047,0.000245937056269906
807,0.000285148620605469,0.00024612189077139
808,0.000276088714599609,0.00023458449741079
809,0.000341415405273437,0.000237183231455056
810,0.000253677368164062,0.000239222126119128
811,0.000293254852294922,0.00023037502865384
812,0.000216960906982422,0.000226830188177628
813,0.000288963317871094,0.000237037473168543
814,0.000256538391113281,0.000238879711525774
815,0.000229358673095703,0.000236684212952621
816,0.00034332275390625,0.000246498523395265
817,0.000259876251220703,0.000238662594854399
818,0.000260353088378906,0.000250916044197116
819,0.000360488891601562,0.000234048853634842
820,0.000329494476318359,0.000236465080434722
821,0.000335693359375,0.000246513281576592
822,0.00025177001953125,0.00024832184918006
823,0.000286579132080078,0.000237853333861612
824,0.000174999237060547,0.000220709166612894
825,0.000355243682861328,0.000227598726345687
826,0.000264644622802734,0.000238921588522419
827,0.000209808349609375,0.000240685179300107
828,0.000287055969238281,0.000241842480308182
829,0.000199794769287109,0.000228133567925139
830,0.000275135040283203,0.000231395272386399
831,0.000253677368164062,0.000226352544782859
832,0.000314712524414062,0.000231693796372379
833,0.000319004058837891,0.000235319983027678
834,0.0002899169921875,0.000221921468319323
835,0.000243186950683594,0.000217316409606502
836,0.000257492065429687,0.00023776154584667
837,0.000307559967041016,0.000261056041863139
838,0.000316143035888672,0.000235207873421456
839,0.00031280517578125,0.000238311743641619
840,0.000240325927734375,0.000248651261461758
841,0.000213146209716797,0.000253411921390417
842,0.000199794769287109,0.000256805918574628
843,0.000245094299316406,0.000231846837080396
844,0.000257492065429687,0.000233842809274511
845,0.000231742858886719,0.000223725571666207
846,0.000273704528808594,0.000226159596387829
847,0.000269412994384766,0.000235219473444811
848,0.000221729278564453,0.000223408259121937
849,0.000226020812988281,0.00023321188470149
850,0.000245571136474609,0.000239727243373856
851,0.000163555145263672,0.000235906720551759
852,0.000218391418457031,0.000228587597227536
853,0.000291824340820312,0.000240741854225181
854,0.000237464904785156,0.000236568905350841
855,0.000175952911376953,0.000255940318044058
856,0.000296115875244141,0.000237929796824934
857,0.000237941741943359,0.000248292546938035
858,0.000186920166015625,0.000257103237873148
859,0.000231266021728516,0.000242698403096563
860,0.000292301177978516,0.000239301952358167
861,0.000194549560546875,0.000251502559666703
862,0.0002899169921875,0.000257809760881092
863,0.000249862670898437,0.000225624106530385
864,0.000290870666503906,0.000227190764149904
865,0.000173568725585937,0.000249016764027802
866,0.000188350677490234,0.000220552521249754
867,0.000185966491699219,0.000199857920314566
868,0.000250339508056641,0.000212517500222076
869,0.000234603881835937,0.000206861610064353
870,0.000163555145263672,0.000206037799201877
871,0.000202178955078125,0.000249403611929848
872,0.000240802764892578,0.000241548968344178
873,0.000267505645751953,0.000227250804522383
874,0.000179767608642578,0.000219295330207794
875,0.000232696533203125,0.000237041310061203
876,0.000204086303710937,0.000244215119440754
877,0.000187873840332031,0.000241541437706514
878,0.000204563140869141,0.000258091828537537
879,0.00017547607421875,0.000260539913567047
880,0.000184535980224609,0.000244118272234934
881,0.000219821929931641,0.000225503143582363
882,0.000212669372558594,0.000242477204064243
883,0.000164985656738281,0.00023874641766844
884,0.000202178955078125,0.00022046178095703
885,0.000227451324462891,0.000257343673332564
886,0.000183582305908203,0.000248233932077223
887,0.000221729278564453,0.00023464652193444
888,0.000107288360595703,0.00022471529728044
889,0.000121116638183594,0.000245344650119255
890,0.000249862670898437,0.000259427461790761
891,0.000207901000976562,0.000267940056316983
892,0.000180244445800781,0.000239301952358167
893,0.000167369842529297,0.000234029423237263
894,0.000284194946289062,0.000232747338173821
895,0.000144481658935547,0.000252087710534009
896,0.000138759613037109,0.000250691212236307
897,0.000091552734375,0.000248673206765315
898,0.000200271606445312,0.000264853747110254
899,0.000185012817382812,0.00023765824195576
900,0.000226020812988281,0.000269685877107752
901,0.000158309936523437,0.000271735267949415
902,0.000247478485107422,0.000249928181919856
903,0.000179290771484375,0.000264668248814532
904,0.000276565551757812,0.000251003021856738
905,0.000178813934326172,0.000235528596650042
906,0.000108718872070312,0.000242964324774798
907,0.0000748634338378906,0.000256302523045824
908,0.000169277191162109,0.000273942013631878
909,0.000131607055664062,0.000248951013168484
910,0.000172138214111328,0.000242859489026009
911,0.000199317932128906,0.000232489290347674
912,0.000148773193359375,0.000255499298853155
913,0.000133037567138672,0.00028199748003168
914,0.000298500061035156,0.000229219346743293
915,0.000288486480712891,0.000233870033085088
916,0.000144004821777344,0.000238971070057282
917,0.0000805854797363281,0.000248921784989555
918,0.000224590301513672,0.000245055332871298
919,0.000283718109130859,0.000236933853579923
920,0.000228404998779297,0.000240670063732718
921,0.000226497650146484,0.000244943966013773
922,0.0000863075256347656,0.000246550173165008
923,0.000180721282958984,0.000258584706574743
924,0.000107288360595703,0.00023512665723386
925,0.000194072723388672,0.000230990078086074
926,0.000191211700439453,0.000213465462190555
927,0.000205039978027344,0.000279685216466809
928,0.000238895416259766,0.000269598179865676
929,0.000226497650146484,0.000240874043858823
930,0.000204086303710937,0.000229611822152896
931,0.000204563140869141,0.000250313621272476
932,0.000195026397705078,0.000248263241237497
933,0.000172138214111328,0.000271219342008262
934,0.0000286102294921875,0.000289835416460023
935,0.0000805854797363281,0.000258978333625697
936,0.000168323516845703,0.000249162814928352
937,0.000165939331054687,0.000230978265657183
938,0.000161647796630859,0.000280931152137045
939,0.000214576721191406,0.000277307764089476
940,0.000144481658935547,0.000275293251841259
941,0.0000128746032714844,0.000241951515751227
942,0.000057220458984375,0.000267811038200096
943,0.000145435333251953,0.00029913162109551
944,0.000111103057861328,0.000272143294157275
945,0.000165939331054687,0.000250596867833613
946,0.00022125244140625,0.000254185962661098
947,0.000116348266601562,0.000248358472120924
948,0.000119209289550781,0.000240760742902151
949,0.0000762939453125,0.000251748344181932
950,0.000293731689453125,0.000231178994862381
951,0.000195026397705078,0.00022462218963307
952,0.000174999237060547,0.00028319470828802
953,0.0000710487365722656,0.000254886299233685
954,0.000217914581298828,0.000257619190624018
955,0.0000286102294921875,0.000262722994629231
956,0.000130653381347656,0.000277805835816391
957,0.000219821929931641,0.000257696847370417
958,0.0000395774841308594,0.000289049859511587
959,0.000123977661132812,0.000278224573065172
960,0.000101566314697266,0.000269523952219478
961,0.000146389007568359,0.000243943104712969
962,0.000234127044677734,0.000279665704679113
963,0.0000529289245605469,0.000281823266102049
964,0.000143051147460937,0.000279079716713749
965,0.0000233650207519531,0.000247947986200822
966,0.000119686126708984,0.000289810311616627
967,0.000221729278564453,0.000248563460872347
968,-0.0000324249267578125,0.000302030327265036
969,0.000238895416259766,0.000314920530070885
970,0.000205516815185547,0.000300962450048124
971,0.000223159790039062,0.000247330979946401
972,0.000182151794433594,0.000243741693005549
973,0.000301837921142578,0.000267382795850755
974,-0.0000300407409667969,0.000257506193550487
975,-0.0000405311584472656,0.000246977712878119
976,0.000263690948486328,0.000297479132852215
977,0.000274181365966797,0.000267301148091962
978,0.0000977516174316406,0.000294313226676705
979,0.000101089477539062,0.000306122028106236
980,0.000030517578125,0.000275590427184352
981,0.000250816345214844,0.000257379012544405
982,0.00000524520874023438,0.000256777584496253
983,0.000197410583496094,0.000299896835710084
984,0.000284194946289062,0.000262778377606316
985,-0.0000128746032714844,0.000267110539598651
986,-0.0000796318054199219,0.000242364652556239
987,0.000426292419433594,0.0002593994140625
988,-0.000113010406494141,0.000274916368587486
989,0.000328540802001953,0.000269287637224138
990,0.000272750854492187,0.000369887965439679
991,0.000133514404296875,0.000271453975357965
992,0.000003814697265625,0.000275827936932989
993,0.0000615119934082031,0.000272710837249596
994,0.0000019073486328125,0.000273662989318596
995,0.0000653266906738281,0.000257774480722065
996,-0.000321865081787109,0.000303352392318546
997,0.000380516052246094,0.000347399350814679
998,0.000414371490478516,0.000378020908869552
999,0.000264167785644531,0.000283342401194915
1000,-0.0000543594360351563,0.000266182785406792
1001,0.000321388244628906,0.000259595684522233
1002,-0.00000524520874023438,0.000305467704386397
1003,0.000254154205322266,0.000331741611639739
1004,0.000087738037109375,0.000351459716633346
1005,-0.000139236450195312,0.000327270123994823
1006,0.000226020812988281,0.000340914225209449
1007,-0.0000362396240234375,0.000366875918949144
1008,0.0000462532043457031,0.000300236305070054
1009,0.000292778015136719,0.000317176651020385
1010,0.000354290008544922,0.000297252803631258
1011,0.000462532043457031,0.000306626685548532
1012,-0.000176906585693359,0.000376458633064863
1013,0.000547409057617188,0.000414329511318037
1014,-0.0000982284545898438,0.00047437413197967
1015,0.000466346740722656,0.000468424010668678
1016,-0.000175952911376953,0.000362717335648111
1017,0.000142097473144531,0.000426717840326081
1018,0.000600337982177734,0.000427756685606999
1019,-0.0000700950622558594,0.000306442730289786
1020,0.000594615936279297,0.000310318061065929
1021,0.000824928283691406,0.000417469774633488
1022,-0.000293254852294922,0.000423362657620856
1023,0.000708580017089844,0.000418922543740611
1024,0.000458717346191406,0.000412349188777973
1025,0.0000247955322265625,0.000432089194935428
1026,0.0000696182250976563,0.0005053430125594
1027,0.00026702880859375,0.000536436504761705
1028,0.000491619110107422,0.000504781176004716
1029,0.000159263610839844,0.000449818969467526
1030,0.0000391006469726562,0.000394503147474622
1031,0.000995635986328125,0.000467125217526694
1032,0.0000429153442382813,0.000560630731424434
1033,-0.0000734329223632813,0.000596521569668067
1034,-0.0000457763671875,0.000593709560792759
1035,0.000847339630126953,0.000384821472011991
1036,0.00041961669921875,0.000411775322525441
1037,0.000543594360351563,0.00067510442522061
1038,-0.0000286102294921875,0.000572751102131697
1039,0.000638961791992188,0.000457938478789449
1040,0.000276088714599609,0.000665672870574578
1041,0.000615119934082031,0.000535947996257784
1042,0.0000777244567871094,0.000464211198334627
1043,0.000257015228271484,0.000742936164560559
1044,-0.000344276428222656,0.000570714918813706
1045,0.000188350677490234,0.000677235013985298
1046,0.000772476196289063,0.000807040656839074
1047,0.000332832336425781,0.000717913458265199
1048,0.000486850738525391,0.000836924063223307
1049,0.000684261322021484,0.00074911952241731
1050,-0.00022125244140625,0.000554326836768882
1051,0.000772953033447266,0.000838799798099366
1052,-0.000459671020507813,0.000798429898190377
1053,0.00226259231567383,0.00104839651898936
1054,-0.0000429153442382813,0.000761622245495206
1055,-0.0000281333923339844,0.000663176095729431
1056,0.000555515289306641,0.00110815478264159
1057,0.000739097595214844,0.000735593920483029
1058,0.000828266143798828,0.000961182601808082
1059,0.00121259689331055,0.000855411307701271
1060,-0.0000219345092773437,0.000729096333341652
1061,0.000343799591064453,0.000918922486868001
1062,0.000418663024902344,0.00126067520542815
1063,0.000960350036621094,0.00120797675947831
1064,0.00214672088623047,0.00144789748099078
1065,0.00110673904418945,0.00126682414685118
1066,0.000832557678222656,0.00117316671547523
1067,-0.0011138916015625,0.00114061361953858
1068,-0.000521183013916016,0.00136708872302042
1069,0.00170564651489258,0.000919872146930798
1070,-0.000776767730712891,0.00104567246796475
1071,-0.000990390777587891,0.00120517872648572
1072,0.0000371932983398437,0.00114938290925699
1073,-0.000912666320800781,0.00121156130382074
1074,-0.000467300415039063,0.00130754556951196
1075,0.00199460983276367,0.00167898690228341
1076,0.000165462493896484,0.00177514222844579
1077,-0.00110340118408203,0.0014999863082539
1078,-0.0001983642578125,0.00137204007288506
1079,-0.000555992126464844,0.00131167909233938
1080,-0.000158786773681641,0.0019003778870833
1081,0.00216865539550781,0.00220033642976218
1082,0.00124645233154297,0.00217805517938541
1083,-0.000573635101318359,0.00160761318250316
1084,0.00349712371826172,0.00157679485928191
1085,0.00154924392700195,0.00195491232154657
1086,0.00219869613647461,0.00158107122090998
1087,0.00279903411865234,0.00176834158453431
1088,0.000707149505615234,0.0025247648131966
1089,0.00221061706542969,0.00318495925919183
1090,0.00221872329711914,0.00261575880483202
1091,-0.00201845169067383,0.00191259045340239
1092,0.0021514892578125,0.00203211325861652
1093,-0.000492572784423828,0.00264444103396993
1094,0.000730037689208984,0.00247864926806813
1095,0.00530195236206055,0.00192789833237351
1096,-0.00159645080566406,0.00266701634108712
1097,0.00374555587768555,0.0029427713061096
1098,-0.00275278091430664,0.00283033056824729
1099,-0.000174045562744141,0.00274170336294158
1100,-0.000581741333007813,0.00257986371335571
