Wavelength (nm),Absorbance (AU),Std.Dev.
190,1.11224317550659,0.439057982071951
191,1.09491920471191,0.308204115175849
192,0.821378231048584,0.200963180585827
193,0.861768245697022,0.198008733383388
194,0.934994697570801,0.228615763315499
195,1.18427085876465,0.877385837703758
196,1.8649697303772,1.78528873277546
197,1.43687868118286,0.90346757667853
198,1.62637186050415,0.732169227258118
199,1.61227560043335,0.479260421647576
200,1.6707501411438,0.24883762982239
201,1.52783823013306,0.205185053968534
202,2.41596031188965,0.333875850423617
203,2.12038803100586,0.155030642526148
204,2.11141872406006,0.0166387702015652
205,2.17956209182739,0.0188937084120565
206,2.14201927185059,0.0107456548470126
207,2.16558933258057,0.00892136913408692
208,2.16149091720581,0.00625275312821143
209,2.16321134567261,0.00452020861957598
210,2.17901420593262,0.00365421716306471
211,2.20364809036255,0.0057612790732003
212,2.21700000762939,0.00752170085570685
213,2.23032236099243,0.00751625088565935
214,2.2385425567627,0.00826840538177544
215,2.26405572891235,0.00750298103057759
216,2.25852632522583,0.00821438878895081
217,2.27332162857056,0.00696924206146884
218,2.2512674331665,0.0097989467517104
219,2.24115705490112,0.00837072190577194
220,2.24073266983032,0.00659123171043644
221,2.19486141204834,0.00607169439230756
222,2.13354015350342,0.00527124359270683
223,2.11409330368042,0.00457743326370784
224,2.07545518875122,0.00350181729105932
225,2.01027727127075,0.00402022038697843
226,1.95816469192505,0.00373051648334103
227,1.90366697311401,0.0024248035475459
228,1.84712982177734,0.00216325289940846
229,1.78557157516479,0.00242773040378335
230,1.72409963607788,0.0022671500367869
231,1.67249488830566,0.0015264510035917
232,1.62323427200317,0.00125296401484525
233,1.5685715675354,0.00111809030647732
234,1.52396535873413,0.000913984269886319
235,1.48663187026978,0.00111302904149951
236,1.44718217849731,0.000884203708179986
237,1.41105079650879,0.00110542002223427
238,1.38104009628296,0.000910650616336567
239,1.35581207275391,0.000862509716063866
240,1.33158397674561,0.00104252263504265
241,1.31132984161377,0.000664743151769605
242,1.2965669631958,0.000759306842684757
243,1.28466939926147,0.00092622546411397
244,1.27535104751587,0.000775407011449898
245,1.27149963378906,0.000990646840706142
246,1.27182340621948,0.000881962627675981
247,1.27475547790527,0.00126171364355087
248,1.28350591659546,0.000997789472916981
249,1.29416036605835,0.00106174750713676
250,1.3122181892395,0.00144616778301167
251,1.33280372619629,0.000897500259359862
252,1.35525131225586,0.00113082452334921
253,1.38529634475708,0.00127067789233884
254,1.40973615646362,0.00190692133885647
255,1.44086647033691,0.0018380033253767
256,1.47323751449585,0.00160471396791198
257,1.50757741928101,0.00252918743942524
258,1.53799867630005,0.00184851900889988
259,1.56772899627686,0.00193573241013409
260,1.5905613899231,0.00247977622569908
261,1.61161279678345,0.00211498045520003
262,1.61968088150024,0.00232655255768383
263,1.63102960586548,0.00212645336896952
264,1.64917325973511,0.00146130292830455
265,1.64651346206665,0.00217698593279206
266,1.63239002227783,0.00283197534440206
267,1.60673904418945,0.00245993260650857
268,1.55728435516357,0.00215829624648308
269,1.50238037109375,0.00162185208840991
270,1.44585180282593,0.00148061369888402
271,1.38749694824219,0.00152343554374374
272,1.34391832351685,0.00141869817053025
273,1.28574275970459,0.00128055699726885
274,1.20742273330688,0.00143140129389143
275,1.11153125762939,0.00100163228956765
276,1.00262928009033,0.000797445104994464
277,0.895656108856201,0.000691860317926891
278,0.800734043121338,0.00074958558603918
279,0.717948436737061,0.000457262718750161
280,0.650586128234863,0.000448936549985497
281,0.594831466674805,0.00034989321630499
282,0.549879550933838,0.000287060721728756
283,0.513864517211914,0.000319337100790979
284,0.484477043151856,0.000259420450142986
285,0.459953784942627,0.000289100199090428
286,0.440516948699951,0.000336964325334507
287,0.424360275268555,0.000245300161983838
288,0.411415576934814,0.000273044135065616
289,0.401232242584229,0.000297851894722425
290,0.393198490142822,0.000261835273826204
291,0.386733531951904,0.000256096626167252
292,0.381882190704346,0.000268035082559069
293,0.378625392913818,0.00023868545854127
294,0.376382350921631,0.000228277043157611
295,0.374924182891846,0.000275068506430477
296,0.374565601348877,0.000242334629992244
297,0.375019550323486,0.000220288445697445
298,0.376446723937988,0.000242563458185882
299,0.378004550933838,0.000342532413805635
300,0.380514621734619,0.000307166046889827
301,0.384008407592773,0.000236714952160251
302,0.387143611907959,0.000266319422541917
303,0.390804767608643,0.000214752549082663
304,0.395510673522949,0.000234782143454424
305,0.399990558624268,0.000234844115777914
306,0.405483245849609,0.000299805841148592
307,0.410624504089356,0.000296621842502391
308,0.416247844696045,0.000275722402303105
309,0.421904563903809,0.000303759866480526
310,0.427769184112549,0.000399506453295473
311,0.433694362640381,0.000351852836858439
312,0.439766407012939,0.00030010904905912
313,0.445351123809814,0.000419287118659636
314,0.45127010345459,0.000354274284763464
315,0.457269191741943,0.000368330701508935
316,0.462698936462402,0.000302138713518067
317,0.468400001525879,0.000299593413025999
318,0.474274635314941,0.000393589143096681
319,0.479711055755615,0.000295152571587337
320,0.484458446502686,0.000387403120415623
321,0.489619255065918,0.000341026254861862
322,0.493689060211182,0.000404438874398169
323,0.497656345367432,0.000427365286413429
324,0.50134801864624,0.000387553342173163
325,0.505136966705322,0.000578024198146845
326,0.507974624633789,0.000428962665115158
327,0.510167121887207,0.000442545987554938
328,0.512770175933838,0.000444637290712995
329,0.514353752136231,0.000334374046059723
330,0.515157222747803,0.000390163536486876
331,0.515885353088379,0.000395092893703103
332,0.516469955444336,0.000428351606877431
333,0.515844345092773,0.000318744151547366
334,0.515308380126953,0.000346718000256027
335,0.514766216278076,0.000327509033689595
336,0.512867450714111,0.000472460690053187
337,0.511675834655762,0.000362546789118623
338,0.508382797241211,0.000352565539837219
339,0.505899906158447,0.000301469710847981
340,0.502522945404053,0.000339089896896001
341,0.49839448928833,0.00040649353920832
342,0.49389123916626,0.000320752304223296
343,0.489638805389404,0.00033391677474867
344,0.484379768371582,0.000462043149887276
345,0.479072093963623,0.000355483940344902
346,0.473275184631348,0.000462562520704274
347,0.466825485229492,0.000478223692145228
348,0.460047245025635,0.000357087044274312
349,0.453545570373535,0.000301336939363579
350,0.445896625518799,0.000277845119241793
351,0.438528060913086,0.000372904950251768
352,0.430478572845459,0.000413635278110467
353,0.421882629394531,0.000383628459139945
354,0.413858413696289,0.000343693427150226
355,0.405166149139404,0.00030883149189408
356,0.395969390869141,0.00031324681065396
357,0.386968612670898,0.000362245628782182
358,0.377472400665283,0.00046056841867838
359,0.367831230163574,0.000455253393880831
360,0.358102798461914,0.000426257215236749
361,0.34891939163208,0.000440461273921541
362,0.338980674743652,0.000476134736542848
363,0.329581737518311,0.000393098954221488
364,0.320545196533203,0.000336326738528031
365,0.311785697937012,0.000336326738528031
366,0.30425500869751,0.000303861649643366
367,0.296846866607666,0.000330940103323088
368,0.288946628570557,0.000268990260965424
369,0.281138896942139,0.000284981120233456
370,0.272977352142334,0.000269118713752095
371,0.264163970947266,0.000267675162474353
372,0.256377696990967,0.000302644002792304
373,0.248217105865479,0.000328656703508935
374,0.240463256835937,0.000239096631039919
375,0.232788562774658,0.000251242055161647
376,0.22521448135376,0.000274876666606112
377,0.217535018920898,0.000370811336116951
378,0.209932804107666,0.000276289176967187
379,0.202705860137939,0.000266462816126395
380,0.195836067199707,0.000287921209842552
381,0.188992500305176,0.000361209734001642
382,0.182692527770996,0.0002526715062797
383,0.176071166992187,0.00020319306455114
384,0.169957637786865,0.000276387913974746
385,0.163700580596924,0.000238658784026969
386,0.157715320587158,0.000279685216466809
387,0.15178918838501,0.000246158841017177
388,0.146174430847168,0.000267851787477059
389,0.141008853912354,0.000265635534035548
390,0.135674476623535,0.000203943648347968
391,0.130683422088623,0.000257633311773513
392,0.125323295593262,0.000219112770776122
393,0.120533466339111,0.000267369189622425
394,0.116512775421143,0.000244869693303368
395,0.111759185791016,0.000201340502252833
396,0.107347965240479,0.000199484413379524
397,0.102972984313965,0.000217955791992329
398,0.0991668701171875,0.000181258342171734
399,0.0949358940124512,0.000238830211062987
400,0.0917425155639648,0.000233928359153553
401,0.0882840156555176,0.00020715597507302
402,0.0845112800598145,0.000240174503153949
403,0.0810313224792481,0.0001923871003559
404,0.0774660110473633,0.000239761385799006
405,0.0743484497070313,0.000232258368528576
406,0.0716099739074707,0.000237864804873049
407,0.0688858032226563,0.000231135715072643
408,0.0659160614013672,0.000185778106737255
409,0.0630860328674316,0.00022342454252277
410,0.0605802536010742,0.000285803320756828
411,0.0575261116027832,0.000216427346078792
412,0.0555200576782227,0.000254035639348104
413,0.0526909828186035,0.000220057119633058
414,0.0507111549377441,0.000134944073300377
415,0.0485606193542481,0.00015228061731916
416,0.0465993881225586,0.000270238388415782
417,0.0445890426635742,0.000223615783663577
418,0.042778491973877,0.000269105195293528
419,0.0408225059509277,0.000258394707853226
420,0.0387353897094727,0.000235033804369253
421,0.0372686386108398,0.000221178437056966
422,0.0354881286621094,0.000176050448585108
423,0.0336217880249023,0.00023165061276415
424,0.0323963165283203,0.000274293710663339
425,0.0310788154602051,0.00022538211571334
426,0.029609203338623,0.000167129893438757
427,0.0282087326049805,0.000164353255649701
428,0.0270137786865234,0.000208058428874161
429,0.025670051574707,0.000181734395754304
430,0.0242815017700195,0.000216297035252912
431,0.0233101844787598,0.000236341969620476
432,0.0224852561950684,0.000207607692335855
433,0.0213913917541504,0.000172607147710278
434,0.0200505256652832,0.000143406743901706
435,0.0191173553466797,0.000182722605339581
436,0.0182714462280273,0.000199251757136021
437,0.0174636840820312,0.000195854151199241
438,0.0162897109985352,0.000193447845682367
439,0.0156736373901367,0.000181734395754304
440,0.0149435997009277,0.000184535364154901
441,0.0140647888183594,0.000197325333326217
442,0.0134763717651367,0.000194137735748283
443,0.0128026008605957,0.000228818248816968
444,0.0120677947998047,0.000218510074947759
445,0.0115790367126465,0.000224711249924059
446,0.0111050605773926,0.000244951392046185
447,0.0103554725646973,0.000215888780364
448,0.00986051559448242,0.000192967696985758
449,0.00948333740234375,0.000234091594832498
450,0.00883054733276367,0.000206086349823059
451,0.00835323333740234,0.000160860292677036
452,0.0080413818359375,0.000187963377244268
453,0.00770998001098633,0.000158304191393189
454,0.00711250305175781,0.00016480916014727
455,0.00678157806396484,0.000227382837537021
456,0.00646162033081055,0.00022617568170765
457,0.00617456436157227,0.000190668094392501
458,0.00575399398803711,0.000184086318307633
459,0.0054020881652832,0.000165851613680484
460,0.00541448593139648,0.000211677032239081
461,0.00482320785522461,0.000197214683597894
462,0.00482177734375,0.0001956636654477
463,0.00445270538330078,0.000191567510858542
464,0.00415325164794922,0.000190677634236621
465,0.00395345687866211,0.0001826479281597
466,0.00373268127441406,0.000180423486181419
467,0.00362396240234375,0.000214909189997619
468,0.0033721923828125,0.000179128370389922
469,0.00321578979492187,0.000219175024029296
470,0.00317525863647461,0.000188403182618537
471,0.00301885604858398,0.000194913859646919
472,0.00254344940185547,0.0001826479281597
473,0.00246667861938477,0.000193490154539658
474,0.00258111953735352,0.000164845026311295
475,0.00240945816040039,0.0001575641992151
476,0.00223970413208008,0.000178853984162382
477,0.00212669372558594,0.000175962602922205
478,0.00196170806884766,0.000153102602684584
479,0.0017857551574707,0.000180322640225197
480,0.00177955627441406,0.000195133044829484
481,0.0017695426940918,0.000181173021686412
482,0.00162792205810547,0.000183160098191708
483,0.00145101547241211,0.000195123722816111
484,0.00147390365600586,0.000193137297533425
485,0.00121736526489258,0.000210505108868599
486,0.00128602981567383,0.000182548311065756
487,0.00137996673583984,0.00014952019684404
488,0.00123357772827148,0.000181724386424539
489,0.00125408172607422,0.000212500381042072
490,0.00118017196655273,0.000197408279921503
491,0.00110626220703125,0.000166207677535218
492,0.0010676383972168,0.000221769780387394
493,0.000917911529541016,0.000216107734558576
494,0.000961780548095703,0.000206685669900635
495,0.000880241394042969,0.000201642927318219
496,0.000789642333984375,0.000219046347805054
497,0.000709056854248047,0.000180302464265388
498,0.000963687896728516,0.000193814215610273
499,0.000810146331787109,0.000215412208763698
500,0.000806331634521484,0.000179077589844496
501,0.000757694244384766,0.000164936036161689
502,0.000567436218261719,0.000208739244447558
503,0.000824451446533203,0.000178303944979281
504,0.000709056854248047,0.000170976544310573
505,0.000665664672851563,0.000212594519472878
506,0.000774383544921875,0.000196762218083325
507,0.00058746337890625,0.00018815199114495
508,0.000687599182128906,0.000181829456906326
509,0.000610828399658203,0.00020569320243138
510,0.000689029693603516,0.000189529424473414
511,0.000637531280517578,0.000180670320879303
512,0.000654697418212891,0.000165026995821558
513,0.000575065612792969,0.000206377413696427
514,0.000557422637939453,0.00020808028443993
515,0.000614643096923828,0.000173070212654257
516,0.000626087188720703,0.000162057301620122
517,0.000628948211669922,0.000179102981916916
518,0.000592708587646484,0.00017480618693332
519,0.00058746337890625,0.00020148500070312
520,0.000574588775634766,0.000183858910786223
521,0.000469207763671875,0.000171820249154601
522,0.000438213348388672,0.000180458768952028
523,0.000462055206298828,0.00020370269088475
524,0.000615119934082031,0.000198162416324963
525,0.000700950622558594,0.000191871119604709
526,0.000622272491455078,0.000179194363585452
527,0.000613689422607422,0.000185689965085934
528,0.000527381896972656,0.000152444772359376
529,0.000683784484863281,0.000176875093644032
530,0.000503063201904297,0.000203492736410225
531,0.000631809234619141,0.000201363086970876
532,0.000617504119873047,0.000201087380113284
533,0.000493049621582031,0.000198300057805978
534,0.000517845153808594,0.000199666699170178
535,0.000569820404052734,0.000194086196206817
536,0.00060272216796875,0.000196729859297579
537,0.000597000122070313,0.000197505006921447
538,0.000542163848876953,0.000208874270421341
539,0.000605106353759766,0.000198922838016997
540,0.000623703002929688,0.000222347280169947
541,0.000591754913330078,0.00022818937456837
542,0.000703811645507813,0.000194923191696796
543,0.000731468200683594,0.000191182564777363
544,0.000714778900146484,0.000197007047852248
545,0.000524044036865234,0.000198162416324963
546,0.000655174255371094,0.000226364598596792
547,0.000554561614990234,0.000211492197097653
548,0.00060272216796875,0.000190281328767644
549,0.000672340393066406,0.000199748673504427
550,0.000621795654296875,0.000210059622372353
551,0.000633716583251953,0.000173106994179942
552,0.000641822814941406,0.00020452701365185
553,0.000517845153808594,0.00024389836092963
554,0.000611305236816406,0.000250589609100637
555,0.000576019287109375,0.000204607040745444
556,0.000577449798583984,0.000194750476387953
557,0.000567913055419922,0.000208926515112108
558,0.000506401062011719,0.000181979452359204
559,0.00066375732421875,0.000197941990877069
560,0.000577926635742188,0.000187478884796973
561,0.000599861145019531,0.000181193100709158
562,0.000604629516601563,0.000190653783731288
563,0.000713348388671875,0.000208721815378564
564,0.000555038452148438,0.00020852127637812
565,0.000548362731933594,0.000211509397878219
566,0.000586032867431641,0.000203197540514366
567,0.000570297241210938,0.000187852054630205
568,0.000620365142822266,0.00020695391877394
569,0.000606060028076172,0.000215289732666823
570,0.000608444213867188,0.000231096362775588
571,0.000531673431396484,0.000219552315391948
572,0.000562667846679688,0.00020495346373283
573,0.000571250915527344,0.000228292979284068
574,0.000522613525390625,0.000217513021187762
575,0.000563144683837891,0.000184288771100153
576,0.000579357147216797,0.000200076234980154
577,0.000564098358154297,0.00020434016188306
578,0.000579833984375,0.000204460300479802
579,0.000606536865234375,0.000191320473989464
580,0.000569343566894531,0.000211810185423305
581,0.000523090362548828,0.000225305431103545
582,0.00054168701171875,0.000201141647387275
583,0.000726222991943359,0.000197020897043102
584,0.000648975372314453,0.000201335985005213
585,0.000506401062011719,0.000205410024596293
586,0.000608921051025391,0.000213831561367662
587,0.000627040863037109,0.000211449189024591
588,0.000459671020507813,0.000205657826525635
589,0.000605583190917969,0.000213009088261623
590,0.000624656677246094,0.000210824586032187
591,0.000558376312255859,0.000210764181548937
592,0.000645160675048828,0.000227798440961206
593,0.000490188598632813,0.000224545245500517
594,0.000623226165771484,0.000205051066963726
595,0.000514507293701172,0.000202937771461307
596,0.000538825988769531,0.000194885860816113
597,0.000469684600830078,0.000203269142521791
598,0.000536918640136719,0.000189774000328824
599,0.000482082366943359,0.000209591493376121
600,0.000451564788818359,0.000210630367118522
601,0.000476837158203125,0.000209574135183754
602,0.000561714172363281,0.000213243794984152
603,0.000471115112304688,0.000216460961944499
604,0.000505924224853516,0.000198744446206676
605,0.00048065185546875,0.000217174068996601
606,0.000524044036865234,0.000209435217852931
607,0.000481605529785156,0.000202097966509361
608,0.000577926635742188,0.000186886103114929
609,0.000535011291503906,0.000177987413746463
610,0.000429630279541016,0.00018613025594979
611,0.000409126281738281,0.000198345917073908
612,0.000498294830322266,0.000198043049661572
613,0.000504016876220703,0.000229564285113191
614,0.000555038452148438,0.000210466220461025
615,0.000481128692626953,0.000198794778053744
616,0.000434398651123047,0.000193099621396021
617,0.000516414642333984,0.000209951352022622
618,0.000514030456542969,0.000223863746634179
619,0.000367164611816406,0.0002093831000923
620,0.000422000885009766,0.000198231249011858
621,0.000584125518798828,0.000199598361507457
622,0.000426769256591797,0.000216191888664008
623,0.000413894653320313,0.000227158736129141
624,0.000377178192138672,0.00020707254093623
625,0.000474929809570313,0.000226079152621897
626,0.000441074371337891,0.000200053504985081
627,0.000513553619384766,0.000174358165571509
628,0.000624179840087891,0.000183050823004755
629,0.000446319580078125,0.000195044467713796
630,0.000377655029296875,0.00023232492886347
631,0.000434398651123047,0.000207909750098122
632,0.000465869903564453,0.00020048947064511
633,0.000384330749511719,0.000206434696081527
634,0.000492095947265625,0.000219436294834437
635,0.000428676605224609,0.000221018009293867
636,0.000461101531982422,0.000209265787672917
637,0.000422000885009766,0.000193127879188137
638,0.000367164611816406,0.000200960699485061
639,0.000482082366943359,0.000223061955843199
640,0.000359058380126953,0.000206227523003855
641,0.000403881072998047,0.000179265406011435
642,0.000445842742919922,0.000194909193454427
643,0.000478744506835938,0.000224784091189071
644,0.000421524047851563,0.000215985652864576
645,0.000400066375732422,0.000204206591657294
646,0.000433921813964844,0.000187827845331228
647,0.000399112701416016,0.000210966899597923
648,0.000401973724365234,0.000204099672539188
649,0.000401496887207031,0.000213516583480229
650,0.000469684600830078,0.000219179173617491
651,0.000268459320068359,0.000229227282190033
652,0.000413894653320313,0.000209621866754061
653,0.000410556793212891,0.000204215499056991
654,0.000461101531982422,0.000222870239472718
655,0.000447273254394531,0.00023161527473242
656,0.000189781188964844,0.000247183846691294
657,0.000882625579833984,0.000205834645255336
658,0.000586509704589844,0.000211345933941186
659,0.000470638275146484,0.000236222644834436
660,0.000403881072998047,0.000224889264697515
661,0.000463485717773438,0.000214612745863764
662,0.000331878662109375,0.000208656443403673
663,0.000416278839111328,0.000231889984146842
664,0.000445842742919922,0.000234886712265614
665,0.000260829925537109,0.000208364198181531
666,0.000426769256591797,0.000216826197965205
667,0.000444412231445313,0.000206474343807903
668,0.000341415405273437,0.000228296963141868
669,0.0004730224609375,0.000222551707405605
670,0.000462055206298828,0.00019341023003947
671,0.000402450561523438,0.000223485594709283
672,0.000368118286132812,0.000241823676124973
673,0.00042724609375,0.00022350594173216
674,0.000397205352783203,0.000208639007417731
675,0.000463962554931641,0.000217625887936439
676,0.000349521636962891,0.000227498803291556
677,0.00040435791015625,0.000221092067341838
678,0.000374317169189453,0.000211513697854797
679,0.000363349914550781,0.000214438923989185
680,0.000323295593261719,0.000215031882840977
681,0.000282764434814453,0.000202910879819837
682,0.000367641448974609,0.000205153057055565
683,0.00031280517578125,0.000213286441184803
684,0.000315189361572266,0.000211668438834745
685,0.000371456146240234,0.000232727799113001
686,0.00038909912109375,0.000216414738782964
687,0.000438690185546875,0.000218164334237246
688,0.000405311584472656,0.000232454079813053
689,0.000372886657714844,0.00023321188470149
690,0.000280380249023437,0.000207283257165543
691,0.000342369079589844,0.000199274578581438
692,0.000398159027099609,0.000223387903201756
693,0.000339984893798828,0.000226878298084106
694,0.000338077545166016,0.000217207569296673
695,0.000382900238037109,0.000208804590499325
696,0.000353813171386719,0.00022187228359613
697,0.000382900238037109,0.000228519948333615
698,0.000296115875244141,0.000208084655277619
699,0.000344753265380859,0.000194871859892153
700,0.000431537628173828,0.00020756826109111
701,0.000322818756103516,0.000226083175489992
702,0.000387668609619141,0.000213708179404134
703,0.000330448150634766,0.000207660255681875
704,0.000278949737548828,0.000197693718475288
705,0.000340938568115234,0.000201566235559432
706,0.000329494476318359,0.000212534618023169
707,0.000290870666503906,0.00021218342707941
708,0.000361442565917969,0.000206161360112055
709,0.000352382659912109,0.000227062624960833
710,0.000387191772460937,0.000215665386765395
711,0.000290870666503906,0.000219515029757266
712,0.000309467315673828,0.000220808043269812
713,0.000366687774658203,0.000217475385921248
714,0.000285148620605469,0.000232962159683057
715,0.000280857086181641,0.000230410556901999
716,0.000345230102539062,0.00021655757849177
717,0.000268936157226562,0.000199114773534476
718,0.000347614288330078,0.000228141541138525
719,0.000411510467529297,0.000224005896543408
720,0.0002899169921875,0.000205865572918871
721,0.000321388244628906,0.00021399737667474
722,0.000357151031494141,0.000231249798864441
723,0.000277042388916016,0.000220383384274037
724,0.000342369079589844,0.000218085111675496
725,0.000340938568115234,0.000213763497366776
726,0.000354766845703125,0.00021815182732439
727,0.000319004058837891,0.000216048807181133
728,0.000216007232666016,0.000207046186328957
729,0.000334262847900391,0.000224962048322496
730,0.000353813171386719,0.000231407063528723
731,0.000365734100341797,0.000218235193204582
732,0.000362873077392578,0.00022965934935294
733,0.000274658203125,0.000211350237243481
734,0.000347137451171875,0.000211771536672007
735,0.000293731689453125,0.000223391974534182
736,0.000359535217285156,0.000214964198897581
737,0.000348091125488281,0.000207094500546983
738,0.000355720520019531,0.000214972660555909
739,0.000364303588867187,0.000215909843300562
740,0.000319480895996094,0.00021561477494788
741,0.000278949737548828,0.000215348867755095
742,0.000321388244628906,0.000224520941875065
743,0.000318527221679687,0.000232446254525484
744,0.000319480895996094,0.00021786397016516
745,0.000260829925537109,0.000221511261927355
746,0.000298023223876953,0.000220997433209543
747,0.000306129455566406,0.000234871223527565
748,0.000280857086181641,0.00023110423377107
749,0.000280380249023437,0.0002235588353249
750,0.000319957733154297,0.000235679147203728
751,0.000343799591064453,0.000230990078086074
752,0.000317573547363281,0.000240930674356661
753,0.000292301177978516,0.000251524256196743
754,0.000329494476318359,0.000230118272885981
755,0.000307559967041016,0.000235157600041329
756,0.000289440155029297,0.000214892261349306
757,0.000307083129882812,0.000238128485625174
758,0.00030517578125,0.000232219206478535
759,0.000270366668701172,0.000219825550140559
760,0.000307083129882812,0.000215627429015966
761,0.000360488891601562,0.000230576283010283
762,0.000365734100341797,0.000238357536130812
763,0.000253677368164062,0.000216838781338249
764,0.000421524047851563,0.00023258706942015
765,0.00032806396484375,0.000238243038404577
766,0.000298500061035156,0.000241564028915215
767,0.000335216522216797,0.00022676201500436
768,0.000354766845703125,0.000217625887936439
769,0.000319004058837891,0.000235659851225572
770,0.000273227691650391,0.000207848498513254
771,0.000256538391113281,0.000204727022731499
772,0.000304222106933594,0.000197131655543583
773,0.000310420989990234,0.000221001548579664
774,0.000294685363769531,0.000216801029028058
775,0.000309944152832031,0.000225418430896973
776,0.000347614288330078,0.0002304421329686
777,0.000311374664306641,0.000231921358789679
778,0.000392913818359375,0.000226155574879114
779,0.000242710113525391,0.000218297696721918
780,0.000239372253417969,0.000207467458306371
781,0.000307083129882812,0.000230607836384774
782,0.000242233276367187,0.000234627141032132
783,0.000331401824951172,0.000223114954691162
784,0.000268936157226562,0.00022408708457715
785,0.000249385833740234,0.000222514924363554
786,0.00028228759765625,0.000230300006575315
787,0.000268936157226562,0.000219025586495539
788,0.00026702880859375,0.000237282909220101
789,0.000264644622802734,0.00023494478593917
790,0.000247955322265625,0.000226103288756834
791,0.000240325927734375,0.00022149483786995
792,0.000284671783447266,0.000230288158749814
793,0.000244617462158203,0.00023236407309533
794,0.00031280517578125,0.000217349887967511
795,0.000298023223876953,0.0002321878720827
796,0.000269889831542969,0.000219978578735591
797,0.000262260437011719,0.000222596656202624
798,0.000291347503662109,0.000235153732413062
799,0.000252246856689453,0.000219519172918305
800,0.000270843505859375,0.000233243081529227
801,0.000300884246826172,0.000231623128094285
802,0.000277996063232422,0.000242848253940117
803,0.000254631042480469,0.000234847988505148
804,0.000305652618408203,0.000226296285161791
805,0.000267982482910156,0.000246077543152644
806,0.000351428985595703,0.0002460923265802
807,0.000300884246826172,0.000247654365414299
808,0.000310897827148437,0.000235478391742622
809,0.000288486480712891,0.00023678410078697
810,0.000244140625,0.000239119453225915
811,0.000272750854492187,0.000230840409324009
812,0.000181198120117187,0.000228288995356746
813,0.000284194946289062,0.000238719749965704
814,0.000218391418457031,0.000237883921996237
815,0.000229358673095703,0.000236334273065248
816,0.000342845916748047,0.000246999806872248
817,0.000238895416259766,0.000237979484576718
818,0.000280380249023437,0.000251082724909724
819,0.000211238861083984,0.000233765009488855
820,0.000269889831542969,0.000236810986466673
821,0.000310897827148437,0.000246011006735019
822,0.000301361083984375,0.000246483764330293
823,0.000256061553955078,0.000236391991121384
824,0.000211715698242187,0.000224083025874079
825,0.000278949737548828,0.00022986518699925
826,0.000289440155029297,0.000239765179101685
827,0.000213146209716797,0.000240994839500384
828,0.000256061553955078,0.000241974068674182
829,0.000156402587890625,0.000230808887744054
830,0.000344276428222656,0.000229912661824099
831,0.000248432159423828,0.000227734551339711
832,0.000261783599853516,0.000233819472056915
833,0.000238895416259766,0.000236849389286429
834,0.000245094299316406,0.000221400375895692
835,0.00022125244140625,0.000217215943564408
836,0.00023651123046875,0.000237604659293232
837,0.000247478485107422,0.000260700441261781
838,0.000247955322265625,0.000236253444097233
839,0.000323295593261719,0.000239146076356869
840,0.000226020812988281,0.000248936399507987
841,0.000242710113525391,0.000253139010640623
842,0.000161647796630859,0.000255143082943863
843,0.000264644622802734,0.00023258706942015
844,0.000241279602050781,0.000232829384323529
845,0.000194072723388672,0.000221548211604791
846,0.000256538391113281,0.000222796772493146
847,0.000233650207519531,0.000234789890889409
848,0.000284671783447266,0.000223037490588852
849,0.000169277191162109,0.00023257142753107
850,0.000263690948486328,0.000240488602818804
851,0.000174999237060547,0.000236072440885924
852,0.000198841094970703,0.000229449363273964
853,0.000231266021728516,0.000242514709625722
854,0.000279426574707031,0.000237841862296932
855,0.000225067138671875,0.000254057119552712
856,0.000230789184570312,0.000237753895245885
857,0.000213623046875,0.000247014535103791
858,0.000189304351806641,0.000256798835348121
859,0.000266551971435547,0.000241111802567451
860,0.000161170959472656,0.000240923124392716
861,0.000192642211914062,0.000252145429529735
862,0.000269889831542969,0.000257950833264224
863,0.000224113464355469,0.000225785289653193
864,0.000196456909179687,0.000226737948990496
865,0.000200271606445312,0.000249775296141984
866,0.00020599365234375,0.000218888512465588
867,0.000180721282958984,0.000196799193037722
868,0.000282764434814453,0.00021257312803571
869,0.000176429748535156,0.000207782851778391
870,0.000277519226074219,0.000206619653714794
871,0.000104427337646484,0.000248563460872347
872,0.000195026397705078,0.000241228708923369
873,0.000246047973632812,0.000223493733740723
874,0.00020599365234375,0.000219162574793307
875,0.000176906585693359,0.00023530065759604
876,0.000181674957275391,0.000244423583088989
877,0.000214576721191406,0.000244222567635075
878,0.000181198120117187,0.00025796493625941
879,0.000133037567138672,0.0002621199491659
880,0.000252723693847656,0.000242668421823676
881,0.000167369842529297,0.000225293320621237
882,0.000247955322265625,0.000242364652556239
883,0.000174045562744141,0.000243080340185675
884,0.000170707702636719,0.00021942800530438
885,0.000197410583496094,0.000257986089306658
886,0.000173568725585937,0.000246962982450594
887,0.000243663787841797,0.000235250404044037
888,0.000156402587890625,0.000224026196310239
889,0.000172138214111328,0.000242653429798096
890,0.000212669372558594,0.000258204569322006
891,0.000196456909179687,0.00026575191924438
892,0.000195503234863281,0.00023953367770743
893,0.00017547607421875,0.000234437123400152
894,0.000256061553955078,0.00023368718380188
895,0.000157356262207031,0.00025080002706263
896,0.000171184539794922,0.000246638690463156
897,0.000138282775878906,0.000246040580697588
898,0.000155448913574219,0.000260874815849029
899,0.00016021728515625,0.000237903037583233
900,0.000130176544189453,0.000273357064473673
901,0.000195026397705078,0.000273297169557974
902,0.000214099884033203,0.000249425491039058
903,0.000255584716796875,0.000262362720310989
904,0.000225067138671875,0.000249658748899177
905,0.000247001647949219,0.000238357536130812
906,0.000207424163818359,0.000242657177891327
907,0.000124454498291016,0.000252066062503179
908,0.000161170959472656,0.000268672245478229
909,0.0000834465026855469,0.000247264780815998
910,0.000210285186767578,0.000240488602818804
911,0.000231266021728516,0.000232594889970225
912,0.000149250030517578,0.000255000457250487
913,0.000171184539794922,0.000281099448042916
914,0.000243186950683594,0.000230532890068639
915,0.000218391418457031,0.000236361209912083
916,0.000133037567138672,0.000242056744747209
917,0.000150680541992187,0.000256387673388055
918,0.000147342681884766,0.000249425491039058
919,0.000218391418457031,0.000234782143454424
920,0.0000896453857421875,0.000239696890468774
921,0.000170230865478516,0.000239381751977683
922,0.000203609466552734,0.000250575091003866
923,0.000110149383544922,0.000264551386862421
924,0.000142574310302734,0.000234413845349879
925,0.000227928161621094,0.000230513163303924
926,0.000191211700439453,0.000212645850142312
927,0.000208854675292969,0.000268563898968942
928,0.000225067138671875,0.00026878054831261
929,0.000150203704833984,0.000244609561219993
930,0.0000934600830078125,0.000228738740058594
931,0.000174045562744141,0.000250277284427703
932,0.000314235687255859,0.000249899068030548
933,0.000123500823974609,0.000271648232320861
934,0.0000920295715332031,0.000287491287725936
935,0.000194549560546875,0.000261904735367107
936,0.000191211700439453,0.000248746343794267
937,0.000163555145263672,0.000234673652508658
938,0.000146389007568359,0.000290831578864611
939,0.000207424163818359,0.000276618163267635
940,0.000225067138671875,0.000272944188455486
941,0.0000791549682617188,0.000235605814079383
942,0.0000152587890625,0.000281719977380932
943,0.000195503234863281,0.000295435927977192
944,0.0000696182250976563,0.000272437228774419
945,0.000168323516845703,0.000252851417943087
946,-0.0000238418579101562,0.00025603979789047
947,0.000034332275390625,0.000251220334259445
948,0.000195026397705078,0.000238403319824187
949,0.000171661376953125,0.000256586247628237
950,0.000303268432617187,0.000241703294710027
951,0.000218391418457031,0.000228643293052536
952,0.000207901000976562,0.000287579853643498
953,-0.0000467300415039063,0.000257039555546598
954,0.000282764434814453,0.000260707418484581
955,0.0000357627868652344,0.00026389048926657
956,0.000214099884033203,0.000279047125745798
957,0.00008392333984375,0.000261104811991083
958,0.0000729560852050781,0.00028984796806631
959,0.000133514404296875,0.000279821760885452
960,0.0001678466796875,0.000271373552491685
961,-0.000011444091796875,0.000248101998008867
962,0.000321865081787109,0.000279503053477931
963,0.0000462532043457031,0.000287756903702091
964,0.0000786781311035156,0.000275260212554047
965,-0.0000205039978027344,0.000259245097315672
966,0.000123023986816406,0.000297876321826638
967,0.000030517578125,0.00025114067487874
968,0.00000858306884765625,0.00032590555265575
969,0.000102043151855469,0.000314174539060714
970,0.0000257492065429687,0.000290562513370492
971,0.000263690948486328,0.000252419414521554
972,0.0000624656677246094,0.00025167607953533
973,0.0000548362731933594,0.000262542919268387
974,0.0000596046447753906,0.00024932337210293
975,0.0000386238098144531,0.000242533460231503
976,0.000261783599853516,0.000322697234841257
977,0.0000591278076171875,0.000277930214282252
978,0.0000634193420410156,0.000296983430849486
979,0.000151634216308594,0.000310194941075397
980,-0.0000195503234863281,0.000302938365658257
981,0.0000791549682617188,0.000245151809891657
982,0.0000677108764648438,0.000248336499004513
983,0.0000324249267578125,0.000299052558950322
984,0.000202178955078125,0.00025435765194961
985,0.000213146209716797,0.00028551677553046
986,-0.0000510215759277344,0.000265964019982198
987,0.000123500823974609,0.000274889901237026
988,0.000198841094970703,0.00028538295596332
989,-0.0000967979431152344,0.000252318507296046
990,0.000469684600830078,0.000376004165404053
991,-0.000265121459960937,0.000311400586227819
992,0.000131607055664062,0.000304065113755966
993,-0.000163555145263672,0.000325307801196791
994,0.000324726104736328,0.000323777697356002
995,0.000179767608642578,0.000263276300132614
996,-0.000158786773681641,0.000274896518313545
997,0.000418663024902344,0.00037202589390659
998,0.000497817993164063,0.000417138497795632
999,0.000233173370361328,0.000305461749560052
1000,0.000372409820556641,0.000273576566975861
1001,0.000167369842529297,0.000273170681609622
1002,-0.000174045562744141,0.00032505608204304
1003,0.0000019073486328125,0.000323221034902205
1004,0.000394344329833984,0.00038160321760995
1005,-0.00002288818359375,0.000331637415404228
1006,0.000376701354980469,0.000313089985398904
1007,0.000249862670898437,0.0003471688895609
1008,0.000296115875244141,0.000280905251509863
1009,-0.000135898590087891,0.000382707495057926
1010,0.000355720520019531,0.000318607160393925
1011,0.0000691413879394531,0.00035232813236468
1012,0.000472068786621094,0.000414724441095147
1013,0.0000815391540527344,0.000387975529024998
1014,0.000124454498291016,0.000467716732251519
1015,0.000108242034912109,0.000480076278717116
1016,0.000212669372558594,0.000369395870437659
1017,0.0000624656677246094,0.000418965962152267
1018,0.000502109527587891,0.000408876115835949
1019,-0.000133514404296875,0.000349133381260536
1020,0.000313282012939453,0.000358966863856803
1021,0.000560760498046875,0.00042643640633896
1022,-0.0000977516174316406,0.000313461591906792
1023,0.000724315643310547,0.000383505159304414
1024,0.000444412231445313,0.00048106039940606
1025,0.00000905990600585938,0.000513441813915748
1026,0.000536918640136719,0.000423414212814685
1027,0.000212192535400391,0.000512065386937979
1028,0.000545978546142578,0.000472291258206227
1029,-0.000298500061035156,0.000341798790858213
1030,0.000363349914550781,0.000409844796820746
1031,0.0002288818359375,0.00044141009158176
1032,0.000314712524414062,0.000493749162855827
1033,-0.0000514984130859375,0.000699578453756571
1034,0.000552654266357422,0.000620589226811066
1035,0.00028228759765625,0.000509601294312951
1036,0.000550270080566406,0.000597106753445493
1037,0.000385761260986328,0.000798757892776351
1038,0.000100135803222656,0.000645935378677879
1039,0.000436782836914063,0.000562289482532553
1040,0.00048828125,0.000664414705111
1041,0.000326156616210937,0.000632377405028634
1042,-0.000363826751708984,0.000429970704837884
1043,0.000200271606445312,0.000552933756383156
1044,0.000240802764892578,0.000557442012936364
1045,-0.000454425811767578,0.000640971311871664
1046,0.0000019073486328125,0.000736404557903004
1047,0.00145292282104492,0.000732421875
1048,-0.000505924224853516,0.000724310463691559
1049,0.000685214996337891,0.000675966077677511
1050,-0.000133037567138672,0.000668280089751729
1051,0.000630855560302734,0.000790204203006553
1052,0.000456333160400391,0.0008444537014253
1053,0.000489711761474609,0.000981734408791499
1054,0.000696659088134766,0.000879351847331293
1055,-0.000730991363525391,0.000902302916540043
1056,0.00139045715332031,0.00105911275767193
1057,-0.000134944915771484,0.00086212158203125
1058,0.000925540924072266,0.000804783600096418
1059,0.0005950927734375,0.000748400439029695
1060,0.00160360336303711,0.000908314585255289
1061,0.000306606292724609,0.0010082931148801
1062,0.00127029418945312,0.00121943885183159
1063,0.00143337249755859,0.00125868825161068
1064,0.00109100341796875,0.00130324262430066
1065,0.00107097625732422,0.00156891222339196
1066,-0.000473976135253906,0.00153310969851665
1067,0.000729560852050781,0.00127775845955401
1068,-0.00272655487060547,0.00134859125210024
1069,0.000723838806152344,0.0010301942930512
1070,0.000294685363769531,0.0011867816863784
1071,-0.000124931335449219,0.00123067596749446
1072,-0.000822544097900391,0.00173114979992801
1073,-0.00105190277099609,0.00155531153543008
1074,-0.000360965728759766,0.0014523529929677
1075,0.00224685668945312,0.00142957020627594
1076,0.0000400543212890625,0.00193073432150057
1077,0.00192975997924805,0.00169496233351809
1078,0.00040435791015625,0.0016725261636756
1079,0.0030517578125,0.00176883526350554
1080,-0.00104093551635742,0.0019906141575768
1081,0.00367259979248047,0.00248493490867352
1082,-0.00183439254760742,0.00227048525235033
1083,0.00136899948120117,0.0016311210148339
1084,0.00118875503540039,0.0017511080997247
1085,0.000326633453369141,0.00175780985090268
1086,0.000257492065429687,0.0015979165352515
1087,0.00217103958129883,0.00139068606864054
1088,-0.00137186050415039,0.00260675321713395
1089,0.00203180313110352,0.00295540331698252
1090,0.000662803649902344,0.00264778464212286
1091,-0.00373458862304687,0.00229982906579706
1092,0.00143289566040039,0.00194906766990183
1093,0.00246143341064453,0.00254958795497868
1094,-0.00264501571655273,0.00306925525856608
1095,0.00382184982299805,0.00203594792393368
1096,0.00215911865234375,0.0027541163208833
1097,-0.00345134735107422,0.00276584229989556
1098,0.00245189666748047,0.00228214562810821
1099,-0.00269937515258789,0.00297197969334469
1100,-0.00236845016479492,0.00277844071755863
