Wavelength (nm),Absorbance (AU),Std.Dev.
190,1.24512767791748,1.13633611472354
191,1.13948440551758,0.645666613645589
192,1.14636182785034,0.624926753520463
193,1.26312255859375,0.35210461674453
194,1.17216062545776,0.267200063666604
195,1.10166215896606,0.486363421158917
196,1.76717233657837,0.95577883612986
197,1.42886161804199,0.476114030787268
198,1.31449365615845,0.328287720069511
199,1.1216344833374,0.248542350859765
200,1.87930822372437,0.357608600473776
201,1.49661111831665,0.182604131384884
202,1.93028020858765,0.0778590443830152
203,1.955979347229,0.0387853325993385
204,1.95733213424683,0.0176344076439898
205,1.98523998260498,0.0113417050748946
206,1.9868950843811,0.00889020578907867
207,2.00445175170898,0.00533621473695243
208,2.01517295837402,0.00363101473799598
209,2.01615810394287,0.00630466870537926
210,2.03308582305908,0.00557361604336663
211,2.05245208740234,0.00437796968760481
212,2.07089185714722,0.00687126838674682
213,2.0838098526001,0.00562352108057249
214,2.09491920471191,0.00746015914132345
215,2.10433483123779,0.00715843772763952
216,2.11652851104736,0.0051687444679941
217,2.11318302154541,0.00425389205607979
218,2.10910081863403,0.0057796780279102
219,2.08774375915527,0.00351978956030363
220,2.07257890701294,0.00251033746757993
221,2.04759311676025,0.00393013802556573
222,2.00179958343506,0.0042892127644772
223,1.95968532562256,0.00352137677900531
224,1.91935920715332,0.00255711082989676
225,1.87145185470581,0.00327129363457626
226,1.82221937179565,0.00246267590354395
227,1.76131582260132,0.00218557852414476
228,1.7052001953125,0.00158272704376718
229,1.64912605285645,0.00187726519765988
230,1.59800052642822,0.00116542591345604
231,1.54721403121948,0.00101031160627727
232,1.49750900268555,0.000682191176224378
233,1.4528112411499,0.000715456616485607
234,1.41250944137573,0.000778590832583653
235,1.37454271316528,0.000636231581978984
236,1.3368935585022,0.000455764537812369
237,1.30605125427246,0.000391624706255073
238,1.27868700027466,0.000403772686373172
239,1.25481176376343,0.000343290963290514
240,1.23188543319702,0.000401586354995256
241,1.21389675140381,0.000392218780576199
242,1.19996929168701,0.000529377732312088
243,1.18879127502441,0.000520479061914384
244,1.18052101135254,0.000523670547652408
245,1.17531061172485,0.000664502306760152
246,1.17660808563232,0.000680086813295488
247,1.17857217788696,0.000668051411299148
248,1.18337154388428,0.00059748438003206
249,1.19425964355469,0.000373353446445223
250,1.2082257270813,0.000472653152518724
251,1.22566890716553,0.000485546680160385
252,1.24608182907104,0.000474535153809876
253,1.27100133895874,0.000841432637542044
254,1.29319095611572,0.00147947317684033
255,1.31756973266602,0.000970643703706661
256,1.34542274475098,0.000728677077210921
257,1.37182664871216,0.00145731421323226
258,1.39872550964355,0.0016834531756348
259,1.42415332794189,0.00151884364479117
260,1.43788146972656,0.00149349173623561
261,1.45273590087891,0.00119535838145043
262,1.46209764480591,0.00132904841073607
263,1.4668607711792,0.00144874146665919
264,1.47420263290405,0.0024137841715436
265,1.47347927093506,0.00165577197374044
266,1.46029663085938,0.00238930419824459
267,1.43077182769775,0.00135751778792043
268,1.38602495193481,0.00089363303648775
269,1.33620309829712,0.000783825146918398
270,1.28256559371948,0.000875969457225413
271,1.23367834091187,0.000804005707861898
272,1.19186782836914,0.00081320184188054
273,1.13764953613281,0.000571479337745677
274,1.06918668746948,0.000551708628563801
275,0.986001014709473,0.000535934420220893
276,0.894232273101807,0.000425197595004052
277,0.805305480957031,0.000344934916884235
278,0.72581672668457,0.000318115790989492
279,0.65885066986084,0.000266496946083899
280,0.60186767578125,0.00022722278765618
281,0.556629180908203,0.000190672864374224
282,0.518741130828857,0.000200089871737788
283,0.487613201141357,0.000221490731665304
284,0.462279796600342,0.00018063004437635
285,0.441591739654541,0.00020498452434735
286,0.423822402954102,0.000196933169052349
287,0.409854412078857,0.000206962707932366
288,0.398373126983643,0.00022603892000317
289,0.388957977294922,0.000238955846060957
290,0.381324291229248,0.000215361537447178
291,0.375540733337402,0.000184293706194781
292,0.371001720428467,0.00020347932770557
293,0.367743492126465,0.000211840240688307
294,0.365392684936523,0.00020647874864089
295,0.363862037658691,0.000230852228806842
296,0.363287925720215,0.000168768022964728
297,0.363554954528809,0.000223208691056421
298,0.364636898040771,0.000221798486060878
299,0.365912914276123,0.000237730941966269
300,0.367815017700195,0.000210102914889943
301,0.3707594871521,0.000208032199164367
302,0.373276233673096,0.000205485281771007
303,0.376364231109619,0.000244847407096878
304,0.380610466003418,0.000285370207969837
305,0.384722232818604,0.000280036196170547
306,0.389017105102539,0.000300805267390691
307,0.393784999847412,0.000275768578673215
308,0.398840427398682,0.000261383323869719
309,0.403423309326172,0.000251914474198899
310,0.408428192138672,0.000259847814421484
311,0.413920402526856,0.000279860761340131
312,0.419378280639648,0.000245559562484431
313,0.424191474914551,0.000287870664095427
314,0.429221153259277,0.000299405136538348
315,0.435010433197022,0.000247007171097794
316,0.439558029174805,0.000304310286606483
317,0.444710731506348,0.000265471138640306
318,0.449594497680664,0.000210284646135185
319,0.453830718994141,0.000265032252390774
320,0.457954406738281,0.000250102794085022
321,0.462208271026611,0.000280127119124458
322,0.466021060943604,0.000264214260268599
323,0.469110012054443,0.000304895510720664
324,0.471967220306397,0.000249206613507472
325,0.475201606750488,0.000345603993313786
326,0.47743034362793,0.000301716992709817
327,0.478799343109131,0.000217492113510375
328,0.480189800262451,0.000229599938815677
329,0.481820106506348,0.000213380232824309
330,0.481966495513916,0.000218530885232941
331,0.482374668121338,0.00030434017222272
332,0.482023239135742,0.000352038898479112
333,0.480892658233643,0.000272363774858932
334,0.480115413665772,0.000261097845387685
335,0.478897571563721,0.00027688764035372
336,0.4769287109375,0.000241925201350524
337,0.474958896636963,0.000215859288799974
338,0.471675395965576,0.000289885619624381
339,0.468544960021973,0.000238101748713263
340,0.464498996734619,0.000257541510461704
341,0.460903167724609,0.000219705534299654
342,0.456264019012451,0.000319991486612384
343,0.451407909393311,0.000267239895902572
344,0.44651985168457,0.000222318645356497
345,0.441366672515869,0.000224273705518168
346,0.435380458831787,0.000213665617379573
347,0.429032802581787,0.00033598583658252
348,0.422279834747314,0.000272216807566416
349,0.415661334991455,0.000187667985632752
350,0.408545970916748,0.000105567482342692
351,0.401163101196289,0.000170491790619557
352,0.393505573272705,0.000319604707326912
353,0.38575267791748,0.000269044353824242
354,0.377228736877441,0.000233449655214218
355,0.369581699371338,0.000275035440145189
356,0.360689640045166,0.000318943824840517
357,0.352453231811523,0.000338198246144127
358,0.343453407287598,0.000299993866153685
359,0.334561347961426,0.000275913654097076
360,0.325666427612305,0.000281552052392676
361,0.316691875457764,0.000284316529757905
362,0.307559490203857,0.000359463115312661
363,0.298688411712646,0.0004157320016156
364,0.290055274963379,0.000321103714320768
365,0.28214693069458,0.000321103714320768
366,0.275379657745361,0.000270110468098192
367,0.268437385559082,0.000219046347805054
368,0.26127815246582,0.000227446825954648
369,0.253724575042725,0.000211022936166205
370,0.246291160583496,0.000201872827782843
371,0.238829612731934,0.000232876254859348
372,0.231210708618164,0.000214511013566902
373,0.223991394042969,0.000198781052450244
374,0.216651916503906,0.000228049832354202
375,0.209146022796631,0.000210033642578502
376,0.202755451202393,0.000209026614269981
377,0.195609092712402,0.000240794738786851
378,0.188833713531494,0.000251046499386183
379,0.182197093963623,0.000228615446836129
380,0.175917625427246,0.000313014448919845
381,0.169785022735596,0.000295060113930216
382,0.16407299041748,0.00025257069977009
383,0.158112049102783,0.000218792925235521
384,0.152356624603271,0.000194385871091132
385,0.146923542022705,0.000213252324906553
386,0.141245365142822,0.000206738467671396
387,0.135907649993896,0.000200403261053529
388,0.13080358505249,0.000265402610505077
389,0.125980377197266,0.000294288503821718
390,0.121535778045654,0.000215817151003332
391,0.116575717926025,0.000250066426605211
392,0.111996173858643,0.00022533772254104
393,0.107597827911377,0.000198726140556254
394,0.103502750396729,0.000247492725499161
395,0.0998454093933106,0.000186915300267007
396,0.0958318710327148,0.00018894788970347
397,0.0916552543640137,0.000224836684093016
398,0.0881466865539551,0.00018860582381184
399,0.0842838287353516,0.000162018011599236
400,0.0814385414123535,0.000201150690509563
401,0.0782680511474609,0.00017820700321959
402,0.0750370025634766,0.000183279233180634
403,0.0718631744384766,0.000148822091698694
404,0.0686955451965332,0.000220762730299306
405,0.065920352935791,0.000205520687376571
406,0.0632448196411133,0.000242064259353633
407,0.0607075691223145,0.000273609809568907
408,0.058138370513916,0.000202946734549952
409,0.0555906295776367,0.000224229092901459
410,0.0530214309692383,0.000249957292418111
411,0.0510687828063965,0.000252390588002358
412,0.0487480163574219,0.000236864748670984
413,0.0464653968811035,0.000214811832051103
414,0.0445718765258789,0.000164858818912063
415,0.0427756309509277,0.000198858818343786
416,0.0409917831420898,0.000228802349275635
417,0.0389032363891602,0.000218405993778986
418,0.0374240875244141,0.000292670823644883
419,0.0359058380126953,0.000257986089306658
420,0.0337119102478027,0.000235590372618226
421,0.032440185546875,0.000246528038874433
422,0.0311093330383301,0.000204121951973866
423,0.0293688774108887,0.000217291297450772
424,0.0282807350158691,0.000272844205233532
425,0.0273003578186035,0.000200829410308406
426,0.0258221626281738,0.000183130302334635
427,0.0248432159423828,0.000193033670460976
428,0.0233736038208008,0.000142343679052135
429,0.022428035736084,0.000176365299309797
430,0.0211658477783203,0.000219216516376568
431,0.0203299522399902,0.000229766249608404
432,0.0194540023803711,0.000218518399299652
433,0.0182933807373047,0.000184550149260283
434,0.017399787902832,0.000185194614402949
435,0.0169992446899414,0.000201182338236483
436,0.0158181190490723,0.000211104809009348
437,0.0150213241577148,0.000200965225168258
438,0.0141396522521973,0.000195072443779687
439,0.0135226249694824,0.000202906397533091
440,0.0129280090332031,0.000187284736880972
441,0.0121512413024902,0.000185792792947115
442,0.0116801261901855,0.000167089074628845
443,0.0112905502319336,0.000218522561356684
444,0.010383129119873,0.00021279976786001
445,0.00990915298461914,0.000228452279407621
446,0.00958776473999023,0.000237309738387997
447,0.00889682769775391,0.000212761298869513
448,0.00850152969360352,0.000194264183923249
449,0.00823783874511719,0.000240855164067297
450,0.00758123397827148,0.000211324416115257
451,0.00726985931396484,0.000170427764157781
452,0.00696182250976563,0.000193066648744576
453,0.0068359375,0.00016195625088008
454,0.00615072250366211,0.000162270424309946
455,0.00585174560546875,0.000220325600447221
456,0.00542211532592773,0.000215188320422059
457,0.00527763366699219,0.000202291385411172
458,0.0049891471862793,0.000198001713665877
459,0.00467681884765625,0.00017226431182763
460,0.00464153289794922,0.000201227540640774
461,0.00440454483032227,0.000189423823671537
462,0.00412321090698242,0.000197836283315514
463,0.00371360778808594,0.000192783794685261
464,0.00361967086791992,0.000190434218927413
465,0.00337505340576172,0.000182259113592584
466,0.00332117080688477,0.000175092111208249
467,0.00322198867797852,0.000217328964596235
468,0.00292253494262695,0.000184165350754467
469,0.00276470184326172,0.000206130476828216
470,0.00281047821044922,0.000189361395516878
471,0.00273323059082031,0.000217642603958273
472,0.00225067138671875,0.000185076712360502
473,0.0022587776184082,0.000207708427063758
474,0.00222635269165039,0.000166218621250623
475,0.00207185745239258,0.000159246478044365
476,0.00187015533447266,0.00017653024234263
477,0.00187873840332031,0.000175967771528087
478,0.00174236297607422,0.000161590819318118
479,0.00159931182861328,0.000189462230773244
480,0.00164413452148437,0.000190596530341489
481,0.00152301788330078,0.000167029188996668
482,0.00139617919921875,0.000178619915289965
483,0.00134468078613281,0.00019397369876441
484,0.00114917755126953,0.000190462872169132
485,0.00101995468139648,0.000202695618250347
486,0.00110673904418945,0.000180231830619682
487,0.0013279914855957,0.00014949282194127
488,0.0012211799621582,0.000179792270941811
489,0.00117969512939453,0.000209496005519806
490,0.00111627578735352,0.000188325928619341
491,0.000975131988525391,0.000158940633056638
492,0.000781536102294922,0.000221728765835733
493,0.000978469848632813,0.000214417716559573
494,0.000993251800537109,0.000199000548503256
495,0.000714778900146484,0.00019889997621347
496,0.000735282897949219,0.000227330833685493
497,0.000815391540527344,0.00019471778328522
498,0.000893115997314453,0.000199470735229913
499,0.000775337219238281,0.000217571551995837
500,0.000796794891357422,0.000182996160941368
501,0.000725269317626953,0.00017374155850528
502,0.000583648681640625,0.000208303080227305
503,0.000750541687011719,0.000177321884801887
504,0.000722885131835938,0.000169743312540337
505,0.0005950927734375,0.000202273400757383
506,0.000720977783203125,0.000193429038775295
507,0.000590801239013672,0.000190099611993937
508,0.000710010528564453,0.000177977193688819
509,0.000607967376708984,0.000199566462589876
510,0.000613212585449219,0.000192962983731553
511,0.000673770904541016,0.000183576732402268
512,0.000674247741699219,0.000169941445092413
513,0.000504016876220703,0.000207699669461686
514,0.000527858734130859,0.000212769848135137
515,0.000624179840087891,0.000173484865827166
516,0.000734806060791016,0.000158203617841341
517,0.000486373901367188,0.000175703978773903
518,0.000579833984375,0.000174514582724677
519,0.000640392303466797,0.000203184112328884
520,0.000597953796386719,0.000180851454141674
521,0.000571250915527344,0.000164045843381535
522,0.000452518463134766,0.000177885186747193
523,0.000480175018310547,0.0002007659985983
524,0.000582218170166016,0.000195988773236321
525,0.000608444213867188,0.000187847213020013
526,0.000536918640136719,0.000187701906642633
527,0.000631332397460938,0.000193005398875823
528,0.000624656677246094,0.000158045444380696
529,0.000716686248779297,0.000182707672345399
530,0.000654697418212891,0.000205591480295743
531,0.00058746337890625,0.000199835165487573
532,0.000655651092529297,0.000208023455192812
533,0.000628948211669922,0.000201340502252833
534,0.0006561279296875,0.000198405518275415
535,0.000739097595214844,0.00019679457154834
536,0.000702381134033203,0.000208010338546297
537,0.00064849853515625,0.00019888625786994
538,0.000620365142822266,0.000207997221072626
539,0.000731945037841797,0.000197836283315514
540,0.000653266906738281,0.000219531601932267
541,0.000643253326416016,0.000229100282058569
542,0.000753402709960938,0.000195319391665465
543,0.000780582427978516,0.00018820032323523
544,0.000683784484863281,0.000194343757232452
545,0.000516414642333984,0.000197191623756182
546,0.000772953033447266,0.000218855269468591
547,0.000624656677246094,0.000210794385954224
548,0.000621318817138672,0.0001984696841681
549,0.000754356384277344,0.000198033864630393
550,0.000597953796386719,0.000209686937748899
551,0.000577926635742188,0.00017931106127921
552,0.000756740570068359,0.00020705497157077
553,0.000609397888183594,0.000245907469857014
554,0.000583648681640625,0.000249279594038368
555,0.000617027282714844,0.000205392313018369
556,0.000607013702392578,0.000195979491926759
557,0.000643253326416016,0.000210574226082485
558,0.000544548034667969,0.000189020077940011
559,0.000696182250976563,0.000201512082627215
560,0.0005950927734375,0.000191657694902148
561,0.000576496124267578,0.00017708579083916
562,0.000708103179931641,0.000180398279977496
563,0.000763416290283203,0.000205396741056033
564,0.000563621520996094,0.000210483505084752
565,0.000641345977783203,0.000210850468370512
566,0.000699043273925781,0.000204478092787235
567,0.000681400299072266,0.000193931495399056
568,0.000728130340576172,0.000212547455469278
569,0.000605106353759766,0.000215027653218678
570,0.000593185424804688,0.000227674638536764
571,0.000616073608398438,0.000218668183444711
572,0.000593662261962891,0.000207226209343583
573,0.000617027282714844,0.000226685797195524
574,0.000589847564697266,0.000217993344319581
575,0.000569343566894531,0.000183863857418743
576,0.000581264495849609,0.000199443376116483
577,0.000702857971191406,0.000201489514609917
578,0.000594615936279297,0.000207283257165543
579,0.00067901611328125,0.000188846779813478
580,0.000689029693603516,0.000209500346821092
581,0.000555992126464844,0.000222482223220845
582,0.000634193420410156,0.000198125695780531
583,0.000797748565673828,0.00019978509574542
584,0.000643730163574219,0.000200112597602105
585,0.000507354736328125,0.000205865572918871
586,0.000690937042236328,0.000216187681736743
587,0.000641345977783203,0.000215871928535049
588,0.000575065612792969,0.000212560292140079
589,0.000689983367919922,0.000212054797269614
590,0.000592708587646484,0.000215703337835323
591,0.000657558441162109,0.000212011903323897
592,0.000598430633544922,0.000226360580730133
593,0.000513076782226563,0.000218751352542289
594,0.00067901611328125,0.000201078334143729
595,0.00057220458984375,0.000201913371280045
596,0.000647068023681641,0.000196905457356011
597,0.000608444213867188,0.00020613488900919
598,0.000577449798583984,0.000191044556012852
599,0.000499248504638672,0.000209044017926335
600,0.000513076782226563,0.00021049646762113
601,0.000536441802978516,0.000209804014681336
602,0.000545501708984375,0.000212543176406728
603,0.000485420227050781,0.000217287111809321
604,0.000590324401855469,0.000199998942457137
605,0.000539779663085938,0.000218005860324548
606,0.000527381896972656,0.000211870291689762
607,0.000532627105712891,0.000206187827816469
608,0.000588893890380859,0.000191306212129514
609,0.000556468963623047,0.000184924310967115
610,0.000514030456542969,0.000190868330988188
611,0.000471115112304688,0.000195895940352543
612,0.000569343566894531,0.000193818908164371
613,0.000544071197509766,0.000224423701054013
614,0.000592708587646484,0.000201358570229919
615,0.000551223754882813,0.000199443376116483
616,0.000494003295898438,0.000199151311707741
617,0.000529766082763672,0.000214515253375845
618,0.000535964965820313,0.000226930405639673
619,0.000329494476318359,0.000209691275097258
620,0.000485420227050781,0.000202969140539902
621,0.000541210174560547,0.000201832276141378
622,0.000489711761474609,0.000216044597467714
623,0.000449657440185547,0.00022654131418274
624,0.000451087951660156,0.000207006648126898
625,0.000517845153808594,0.000228141541138525
626,0.000494003295898438,0.00020543216192132
627,0.000579357147216797,0.000177485938853215
628,0.000657081604003906,0.000186296317246624
629,0.000517368316650391,0.000195240215992267
630,0.000401496887207031,0.000230726123107404
631,0.000443458557128906,0.000204607040745444
632,0.000494956970214844,0.000201005951731685
633,0.000424385070800781,0.000205219545025071
634,0.000483036041259766,0.000219017281420686
635,0.000504493713378906,0.000223428613187551
636,0.000540256500244141,0.000212389072738062
637,0.000521659851074219,0.000190672864374224
638,0.000461101531982422,0.000204224406068185
639,0.000451564788818359,0.000226163617825037
640,0.000484466552734375,0.000207546351606983
641,0.000441074371337891,0.000176849381691222
642,0.000510215759277344,0.000186730307868248
643,0.000408172607421875,0.000226597512968021
644,0.000514507293701172,0.000217475385921248
645,0.000494003295898438,0.000208150206829248
646,0.000472068786621094,0.000190730094850062
647,0.000472068786621094,0.000213831561367662
648,0.0003814697265625,0.000204429160215626
649,0.000451564788818359,0.000210124557803862
650,0.000514030456542969,0.000214816065922814
651,0.000303745269775391,0.000226697833290001
652,0.0004425048828125,0.00021021976015386
653,0.000523567199707031,0.000203662503591251
654,0.000531196594238281,0.000217575732165333
655,0.000566005706787109,0.000218867736184162
656,0.000196933746337891,0.000243248651194499
657,0.00107526779174805,0.000205334739839096
658,0.000667095184326172,0.000211973291351504
659,0.000505924224853516,0.000235578790858142
660,0.000471115112304688,0.000228531887828829
661,0.000467777252197266,0.000213665617379573
662,0.000433444976806641,0.000206685669900635
663,0.000414848327636719,0.000227818402793484
664,0.000508308410644531,0.000235192405833669
665,0.000407695770263672,0.000207484992743378
666,0.0004119873046875,0.000220309087998689
667,0.000471591949462891,0.000208774098220459
668,0.000532150268554688,0.000227330833685493
669,0.000525951385498047,0.000223680849725524
670,0.000500202178955078,0.000199041677065957
671,0.000483036041259766,0.000221884580799054
672,0.000448703765869141,0.000241763492910197
673,0.000441551208496094,0.000222441340032051
674,0.000407218933105469,0.000206284847011485
675,0.000568866729736328,0.000210915160320726
676,0.000412940979003906,0.000227074641081549
677,0.000422477722167969,0.0002215358957304
678,0.00046539306640625,0.000211048794179515
679,0.00046539306640625,0.000213652847118833
680,0.000420093536376953,0.000216746486304574
681,0.000339031219482422,0.000204255577548638
682,0.000417232513427734,0.000206311298873748
683,0.000491619110107422,0.000212615908757839
684,0.000380992889404297,0.000211685625294568
685,0.000456809997558594,0.000234371162919583
686,0.000433921813964844,0.000218921750414677
687,0.000511646270751953,0.000219498456331062
688,0.000456809997558594,0.000231984095345581
689,0.000417709350585938,0.000231862527851738
690,0.000389575958251953,0.000207546351606983
691,0.000476360321044922,0.00019767991642141
692,0.000477313995361328,0.000222968157790102
693,0.000391483306884766,0.000226497148212077
694,0.000435352325439453,0.000218480937218446
695,0.000396251678466797,0.000207664635360153
696,0.000412464141845703,0.000220432901212411
697,0.000470161437988281,0.000227162739878688
698,0.000452041625976563,0.000208324910126467
699,0.000422477722167969,0.000192783794685261
700,0.000338554382324219,0.000206558019572157
701,0.000393867492675781,0.00022543456910081
702,0.000440597534179688,0.000213397281420759
703,0.000449180603027344,0.000206042213367447
704,0.000322341918945312,0.000197781109116249
705,0.000397205352783203,0.000201660968199289
706,0.000375270843505859,0.000210211107176427
707,0.000406742095947266,0.000209122316456301
708,0.000417709350585938,0.000206377413696427
709,0.000362873077392578,0.00022787029537353
710,0.000430107116699219,0.000213878342803499
711,0.000349044799804687,0.000218614106563972
712,0.000421047210693359,0.000220015785813569
713,0.000424861907958984,0.000218043404028826
714,0.000384330749511719,0.000234820878073244
715,0.000290393829345703,0.000230165695508409
716,0.000374317169189453,0.000216322262829374
717,0.000325679779052734,0.000200071689187726
718,0.000388145446777344,0.00022710267622408
719,0.000441551208496094,0.000222927363718042
720,0.000348091125488281,0.000204478092787235
721,0.000367164611816406,0.000216603771171368
722,0.0004119873046875,0.000231748745690446
723,0.000353813171386719,0.000219974444227339
724,0.000371456146240234,0.000218497587825277
725,0.000370502471923828,0.000210923784414951
726,0.000499725341796875,0.000219846235905046
727,0.000382423400878906,0.000216750682385967
728,0.000283718109130859,0.000207331516139239
729,0.000405311584472656,0.000226404773341735
730,0.000421524047851563,0.000231517085231924
731,0.000442028045654297,0.000221765679273573
732,0.000432014465332031,0.000229702907314328
733,0.000354766845703125,0.000213640076094755
734,0.000385761260986328,0.000211384660508051
735,0.000358104705810547,0.000221079726056636
736,0.000448703765869141,0.000215720202834398
737,0.000416755676269531,0.000208896040630418
738,0.00038909912109375,0.000221441451270509
739,0.000411510467529297,0.00021794744615204
740,0.000452518463134766,0.000216103525993067
741,0.000358104705810547,0.000214146075968705
742,0.000410079956054688,0.000222723281279931
743,0.000369071960449219,0.000231171126412391
744,0.000411033630371094,0.000217400095842509
745,0.000323772430419922,0.00022046178095703
746,0.000373363494873047,0.000221851786743185
747,0.000371456146240234,0.000234708530067372
748,0.000360965728759766,0.000230359236562468
749,0.000368118286132812,0.000222939602723444
750,0.000399589538574219,0.000235891298787961
751,0.000444412231445313,0.000231587785868663
752,0.000335693359375,0.000242000377761198
753,0.000379562377929687,0.000250480702863721
754,0.000415325164794922,0.000230497380676587
755,0.000393390655517578,0.000236780259726377
756,0.000357151031494141,0.00021312007274431
757,0.000346183776855469,0.000235582651508102
758,0.0003509521484375,0.000231646686582396
759,0.000369071960449219,0.000217972482714259
760,0.000399589538574219,0.000213068856320433
761,0.000423431396484375,0.000231473868656587
762,0.000437259674072266,0.000239852408505616
763,0.000335693359375,0.000215909843300562
764,0.000462532043457031,0.000230891622713172
765,0.000372409820556641,0.000236626566175374
766,0.000436305999755859,0.000240957097367519
767,0.000374794006347656,0.000224941833011192
768,0.000434398651123047,0.000217404279308701
769,0.000404834747314453,0.000234367282313198
770,0.000348567962646484,0.000207230598195137
771,0.000351428985595703,0.000205401168998238
772,0.000349521636962891,0.000197463558294712
773,0.000379562377929687,0.000220498906499278
774,0.000360965728759766,0.000215817151003332
775,0.000385284423828125,0.00022471529728044
776,0.000417709350585938,0.00023095463898692
777,0.000370979309082031,0.000232097762130553
778,0.000439643859863281,0.000225970508111876
779,0.000309467315673828,0.000219962040236301
780,0.000313758850097656,0.000208547444575045
781,0.000362873077392578,0.000231623128094285
782,0.000360488891601562,0.000234809258358521
783,0.000363349914550781,0.000221351075384583
784,0.000351428985595703,0.000225386151022695
785,0.000348091125488281,0.000223208691056421
786,0.000333786010742187,0.000230556559958333
787,0.00031280517578125,0.000219008976030894
788,0.000329017639160156,0.000238147581581582
789,0.000328540802001953,0.000236906981843945
790,0.000358104705810547,0.000229611822152896
791,0.000342369079589844,0.000221794385477843
792,0.000345230102539062,0.000230867987176006
793,0.00035858154296875,0.000236288088469217
794,0.000391960144042969,0.000220980970962642
795,0.000396728515625,0.000232630079192036
796,0.000383853912353516,0.000220090181099535
797,0.000433921813964844,0.00022246995905308
798,0.000345230102539062,0.000236014644682877
799,0.000391483306884766,0.000221474306085418
800,0.000356197357177734,0.000235397268888612
801,0.00034332275390625,0.000234739527991377
802,0.000418663024902344,0.00024267591748915
803,0.000364303588867187,0.000234483672568008
804,0.000326156616210937,0.000225103504669689
805,0.000371932983398437,0.000244047474972191
806,0.000331401824951172,0.000244735945622947
807,0.000309944152832031,0.000245418779090375
808,0.0003662109375,0.000234755025418475
809,0.000368118286132812,0.000236253444097233
810,0.000369071960449219,0.000238017698865937
811,0.00035858154296875,0.000232805945516974
812,0.00032806396484375,0.000229195538754577
813,0.000394344329833984,0.000237221574013617
814,0.000299930572509766,0.000238510114264559
815,0.000330448150634766,0.000236860908918219
816,0.000382423400878906,0.000246424719230792
817,0.000301837921142578,0.000239244936333828
818,0.000382423400878906,0.000249971846395964
819,0.000346183776855469,0.000233020712996178
820,0.00031280517578125,0.000239012931047174
821,0.000382900238037109,0.000245870481834325
822,0.000421047210693359,0.000246373043160824
823,0.000298500061035156,0.000233780571517264
824,0.000274181365966797,0.000222633425741107
825,0.000407218933105469,0.000227590734115807
826,0.000342845916748047,0.000240579350384495
827,0.000358104705810547,0.000241782301774048
828,0.000360012054443359,0.000243950561212328
829,0.000263214111328125,0.000227966066025856
830,0.000383853912353516,0.000230173598328906
831,0.000309944152832031,0.000226878298084106
832,0.000343799591064453,0.000232712166683152
833,0.000400066375732422,0.000236461234191984
834,0.000324249267578125,0.000222310463303779
835,0.000356197357177734,0.00021526438408462
836,0.000376224517822266,0.000238323192588802
837,0.000316143035888672,0.000264413836087843
838,0.000286579132080078,0.00023678410078697
839,0.000356197357177734,0.000240223726612282
840,0.000293254852294922,0.000249418198215905
841,0.000254154205322266,0.000252426620636991
842,0.000258922576904297,0.000256061109972237
843,0.00026702880859375,0.000230836469361911
844,0.000274181365966797,0.000233924471201433
845,0.000338554382324219,0.000223514080022684
846,0.000320911407470703,0.000222228626207944
847,0.000277519226074219,0.000232942638641311
848,0.000422954559326172,0.000222290006854386
849,0.000351905822753906,0.000230737948444515
850,0.000320911407470703,0.000239510894991492
851,0.000245571136474609,0.000235609674286546
852,0.000258445739746094,0.00022912013046944
853,0.000333309173583984,0.000241206086308812
854,0.000323295593261719,0.00024042808541284
855,0.000276088714599609,0.000255513537160104
856,0.000399589538574219,0.000240291865523484
857,0.000354766845703125,0.000247881951847606
858,0.000308990478515625,0.000258267964385881
859,0.000311851501464844,0.000241586618011372
860,0.000293254852294922,0.00023964376363417
861,0.000380039215087891,0.00025318930577685
862,0.000274181365966797,0.00025921001251529
863,0.000295162200927734,0.00022685825352965
864,0.000298976898193359,0.000228694998458983
865,0.000223636627197266,0.000251950574924812
866,0.000313758850097656,0.000218809552101206
867,0.000257492065429687,0.000197007047852248
868,0.000333309173583984,0.000213576209519505
869,0.000252723693847656,0.000210297620929031
870,0.000267505645751953,0.000204824733866254
871,0.000216007232666016,0.000247007171097794
872,0.000240325927734375,0.000241017481943192
873,0.000274181365966797,0.000222159040973825
874,0.00026702880859375,0.00021681361386185
875,0.000303268432617187,0.000232262284370406
876,0.000254631042480469,0.000241481184150801
877,0.000360488891601562,0.000240662505593006
878,0.000225067138671875,0.000261501601595292
879,0.000259876251220703,0.000262147705818614
880,0.000235080718994141,0.000242529710226319
881,0.000323772430419922,0.000229508812789141
882,0.000338554382324219,0.000244542625386605
883,0.000197410583496094,0.000239495705310161
884,0.00034332275390625,0.000216951998852632
885,0.000337600708007812,0.000259917807100039
886,0.000246524810791016,0.000250437127108305
887,0.000287055969238281,0.000237960375130782
888,0.000236988067626953,0.000226898340867796
889,0.000206947326660156,0.000242844508795979
890,0.000307559967041016,0.000259469527698416
891,0.000260353088378906,0.000267763489539114
892,0.000227451324462891,0.000237968019093301
893,0.00026702880859375,0.000232313184307748
894,0.000325202941894531,0.000233928359153553
895,0.000230312347412109,0.000254643543522318
896,0.000193119049072266,0.000248739031059078
897,0.000314235687255859,0.000249789860723829
898,0.000242233276367187,0.000266237448675754
899,0.000267505645751953,0.000239176499163512
900,0.000321865081787109,0.000268753476695649
901,0.000228404998779297,0.000270944227375864
902,0.000363826751708984,0.000248563460872347
903,0.0002288818359375,0.000260714395520657
904,0.000361442565917969,0.000252750683189048
905,0.000205039978027344,0.000242131880316671
906,0.000266075134277344,0.000243166380367569
907,0.000159263610839844,0.000254193118696703
908,0.000347137451171875,0.000266797101445193
909,0.000280380249023437,0.000248292546938035
910,0.000285625457763672,0.000245685458192514
911,0.000306606292724609,0.000235122789096603
912,0.000229358673095703,0.000257477936533662
913,0.000161647796630859,0.000281532669987174
914,0.00029754638671875,0.00022935024650464
915,0.000311851501464844,0.0002358141748407
916,0.000248908996582031,0.000239624786910144
917,0.000234603881835937,0.000250160971055822
918,0.000298023223876953,0.000246173619562564
919,0.000279426574707031,0.000232074249432351
920,0.00019073486328125,0.000238834019155133
921,0.000256538391113281,0.000242075530825884
922,0.000226974487304687,0.000248636630183305
923,0.000207424163818359,0.000260344354951141
924,0.000169754028320312,0.00023450306532751
925,0.000242710113525391,0.000234056625342225
926,0.000386714935302734,0.000214705958124274
927,0.000276088714599609,0.000271199221132682
928,0.000308990478515625,0.000270144137212451
929,0.000383377075195312,0.000242146904632912
930,0.000231266021728516,0.000223196466806512
931,0.000351905822753906,0.00025161102360789
932,0.000312328338623047,0.000256139239100713
933,0.000333309173583984,0.000277032129751058
934,-0.0000166893005371094,0.000295208032282121
935,0.000184059143066406,0.00026384912820115
936,0.000319957733154297,0.000246195785717293
937,0.0000629425048828125,0.000234305183870134
938,0.000284671783447266,0.000280659076338446
939,0.000351905822753906,0.000273017486213799
940,0.000220775604248047,0.00027626284113861
941,0.0000629425048828125,0.000243633458737728
942,0.000291347503662109,0.000266674351449533
943,0.00028228759765625,0.000291762002507419
944,0.0000243186950683594,0.000271976144329968
945,0.000234127044677734,0.000250444390260729
946,0.0000886917114257813,0.000258591740883488
947,0.000179767608642578,0.000248695150132378
948,0.000110149383544922,0.000244512870245607
949,0.000203132629394531,0.000259153866954981
950,0.000339984893798828,0.000238872096737626
951,0.000311851501464844,0.000223656452170536
952,0.000223636627197266,0.000288779133932775
953,0.000222206115722656,0.00025712446181038
954,0.000372409820556641,0.000261626778551873
955,0.000209331512451172,0.000262549847527615
956,0.000195503234863281,0.000280879348494315
957,0.000266551971435547,0.000268922629591071
958,0.000199317932128906,0.000290155312813184
959,0.000146865844726562,0.0002797112300665
960,0.000231266021728516,0.00027720279284919
961,0.000181674957275391,0.000253799237111473
962,0.000381946563720703,0.000281590813201303
963,0.0000462532043457031,0.000290731490561255
964,0.000280857086181641,0.000286946640232826
965,0.0000472068786621094,0.00025228966924723
966,0.000313282012939453,0.000299775503490161
967,0.000319004058837891,0.00025796493625941
968,0.000132560729980469,0.000322420911872424
969,0.000283718109130859,0.000321200001541585
970,0.000281810760498047,0.000304776168493327
971,0.000314712524414062,0.000260071724686574
972,0.0002899169921875,0.000239514692261308
973,0.00046539306640625,0.000258134112102008
974,0.000218868255615234,0.000256203145211677
975,0.0000333786010742187,0.0002598828131171
976,0.000180244445800781,0.000317245462848868
977,0.000367164611816406,0.000293211042031489
978,0.000375747680664062,0.000296750593941212
979,0.000326156616210937,0.000310054172649553
980,0.0000872611999511719,0.000284514791243966
981,0.000123023986816406,0.000242863233939141
982,0.000258445739746094,0.000254986190293402
983,0.000301361083984375,0.000296290510468915
984,0.000259876251220703,0.000266093933644542
985,0.000271797180175781,0.000274492584733498
986,0.000191688537597656,0.000251654396094828
987,0.000410079956054688,0.000265382048613859
988,0.000170230865478516,0.000282042629040128
989,0.000227928161621094,0.000264613261383654
990,0.000122547149658203,0.00038659467838156
991,0.000232696533203125,0.000258021340531706
992,0.000383853912353516,0.000292720540521896
993,0.000136852264404297,0.000322488604695314
994,0.0000844001770019531,0.000314729863469441
995,0.000227928161621094,0.000274432937644906
996,-0.0000758171081542969,0.000259917807100039
997,0.000284194946289062,0.000353883854471103
998,0.000456809997558594,0.000407851618821676
999,0.000475883483886719,0.000300181773385485
1000,0.000260353088378906,0.000295946515067728
1001,0.000669479370117188,0.000289037273246988
1002,-0.0000166893005371094,0.000305539153250088
1003,0.00000810623168945313,0.000315653233103398
1004,0.000266551971435547,0.00035541229598853
1005,0.000151634216308594,0.000311785874767119
1006,0.000344276428222656,0.000311014820389257
1007,0.0000219345092773437,0.000353328290325243
1008,0.000609397888183594,0.000295386668130584
1009,-0.000111103057861328,0.000340577915146171
1010,0.000115871429443359,0.00034895619586271
1011,0.000648021697998047,0.000308972817375402
1012,0.0000405311584472656,0.000387384338599966
1013,0.000452995300292969,0.000367826632852681
1014,0.000296592712402344,0.00046539306640625
1015,0.000389575958251953,0.000458597377705076
1016,0.000235080718994141,0.000379902481217144
1017,0.000146389007568359,0.000400697587554736
1018,0.000785350799560547,0.000437444493910969
1019,0.0001373291015625,0.000336202322324429
1020,0.000534534454345703,0.00031007763849176
1021,0.000963211059570313,0.000366270537294926
1022,0.000195026397705078,0.000326452065661936
1023,0.000608921051025391,0.000363928916755705
1024,0.000433921813964844,0.00047020689491137
1025,0.0000467300415039063,0.000488042773184799
1026,0.000614166259765625,0.000411563231178625
1027,0.000273227691650391,0.00050745511316882
1028,0.000658035278320313,0.000468656945429549
1029,0.000315666198730469,0.000411996134910614
1030,0.000611305236816406,0.000393607628837155
1031,0.000749588012695313,0.000570714918813706
1032,0.000662326812744141,0.000463324781820342
1033,0.0000753402709960938,0.000598153775980605
1034,0.000679969787597656,0.000683682725429253
1035,0.000847339630126953,0.000442956825189188
1036,0.000590324401855469,0.000463630904703106
1037,0.000751495361328125,0.00056831308140285
1038,0.000318527221679687,0.000542304533233214
1039,0.000921249389648438,0.000573208246574746
1040,0.000845909118652344,0.000634422117601049
1041,0.00025177001953125,0.000552617854382671
1042,0.000376701354980469,0.000530928573245681
1043,0.000893115997314453,0.000707993836100516
1044,0.000589847564697266,0.000542720292726717
1045,0.00120401382446289,0.00067088802196297
1046,0.000805854797363281,0.000879418038663516
1047,0.00119781494140625,0.000779095300977768
1048,0.00103139877319336,0.00100230036401547
1049,0.000221729278564453,0.000730452273432905
1050,0.000299453735351562,0.000559734521775045
1051,0.00127935409545898,0.000779450101535895
1052,0.00167703628540039,0.000867086646298282
1053,0.000579357147216797,0.00110631482229403
1054,0.00127553939819336,0.00076615609146039
1055,-0.000172615051269531,0.000708014389533703
1056,0.000833511352539063,0.00111861078425733
1057,0.00148868560791016,0.0011365749507413
1058,0.000714302062988281,0.000909531350148085
1059,0.00152158737182617,0.000865137681444879
1060,0.00100326538085937,0.000976249525462962
1061,-0.000423908233642578,0.00109595396023255
1062,0.00164461135864258,0.00125625805881867
1063,0.000911712646484375,0.00122365594402105
1064,0.000644683837890625,0.00128760584256142
1065,0.00288105010986328,0.00147442860790076
1066,-0.000620841979980469,0.00112574295174698
1067,0.000479698181152344,0.00138561231503253
1068,0.000866413116455078,0.00140625284777459
1069,0.000983715057373047,0.00122420286126893
1070,0.000592231750488281,0.00163525531412214
1071,0.00110769271850586,0.00142965163774798
1072,-0.000446796417236328,0.00180212048237791
1073,0.00113010406494141,0.00155519925613292
1074,-0.00020599365234375,0.00134160250848239
1075,0.00136089324951172,0.00136224756838919
1076,0.000919342041015625,0.00196210465898655
1077,0.00261688232421875,0.00140401589894683
1078,0.00151205062866211,0.00164260704795239
1079,0.0011134147644043,0.00196210465898655
1080,0.000507831573486328,0.00201670168427207
1081,0.00142574310302734,0.00259551957100714
1082,0.000746726989746094,0.00244150161556907
1083,0.00257682800292969,0.00170448255242258
1084,0.00127649307250977,0.00197605736878236
1085,0.000248432159423828,0.00217703940759421
1086,0.00359201431274414,0.00189328924741392
1087,-0.000692844390869141,0.00185427250698448
1088,-0.000193119049072266,0.0031286843753399
1089,0.0035853385925293,0.00290839084098838
1090,-0.0017247200012207,0.00197729415318909
1091,-0.000518798828125,0.00220403687564304
1092,0.00143289566040039,0.00228423613584131
1093,0.00153875350952148,0.00265923528651666
1094,0.000528335571289063,0.00275779132186495
1095,0.001739501953125,0.00235005167336163
1096,0.00230598449707031,0.00390982464309315
1097,0.000513553619384766,0.0028944277880012
1098,0.00194072723388672,0.00269942598610059
1099,-0.000408172607421875,0.00325123226206398
1100,-0.00336837768554687,0.00223096854961893
