Wavelength (nm),Absorbance (AU),Std.Dev.
190,1.16253614425659,0.338426462770164
191,0.916971683502197,0.214999056082139
192,0.725189685821533,0.24386312353954
193,1.261803150177,0.346496705671231
194,1.07067489624023,0.211064053471852
195,0.991877555847168,0.164494988918795
196,1.16690254211426,0.218658428098967
197,1.37214660644531,0.309291389033187
198,1.23610210418701,0.168561024287026
199,1.09480810165405,0.793766916650442
200,2.17622995376587,1.70118869287037
201,1.66772127151489,0.79074310506202
202,1.88345193862915,0.0911504835123284
203,1.88608169555664,0.044054362309895
204,1.95911645889282,0.0155406103499601
205,1.97384738922119,0.0109715680471936
206,1.96462821960449,0.0110734662804459
207,1.98527908325195,0.00698659278767172
208,1.97891044616699,0.00485191103778248
209,1.99073648452759,0.00678204683816835
210,2.01419734954834,0.00439357747218085
211,2.03461456298828,0.0054810283970594
212,2.0478458404541,0.00617179822270407
213,2.05706644058228,0.00576386492569728
214,2.06992959976196,0.00536076680008652
215,2.08710813522339,0.00624500313327366
216,2.09201049804688,0.00746602429247894
217,2.08481407165527,0.00604140146813474
218,2.07778882980347,0.00653731828075971
219,2.06602048873901,0.00480319922742901
220,2.04976463317871,0.00443681927281779
221,2.00827169418335,0.00332802549849225
222,1.97792720794678,0.00312875879252193
223,1.93691968917847,0.00336911851074038
224,1.88931655883789,0.0030637885419117
225,1.84533596038818,0.00265410834815533
226,1.80090713500977,0.00262796928293713
227,1.74120140075684,0.00307243968472979
228,1.68340253829956,0.00233693722156697
229,1.63250207901001,0.00145106992453285
230,1.57723522186279,0.00137059689210954
231,1.52763223648071,0.00140467906998172
232,1.47904634475708,0.000848356424720511
233,1.43395042419434,0.00122391754363114
234,1.39238548278809,0.000761144433778334
235,1.35463094711304,0.00043274541831642
236,1.31884431838989,0.000513073236956632
237,1.28920650482178,0.000415679493626554
238,1.26261520385742,0.000537195523895856
239,1.23800754547119,0.000421985528957481
240,1.21629047393799,0.00040101523061934
241,1.19852638244629,0.000374996577063475
242,1.18420314788818,0.000378203715922031
243,1.17288875579834,0.000360725970747958
244,1.16494035720825,0.00041386388848931
245,1.16002702713013,0.000461665058665127
246,1.15958738327026,0.000504204283043658
247,1.16286420822144,0.00055858944344361
248,1.16771173477173,0.000416859323632737
249,1.17794561386108,0.000419729391051214
250,1.19132089614868,0.000435251775872878
251,1.20850944519043,0.000719634323213616
252,1.22909593582153,0.000827516783404716
253,1.25261068344116,0.000529487675767544
254,1.27275943756104,0.000806860324645274
255,1.29665899276733,0.00110373372479868
256,1.32391500473022,0.00115818631737336
257,1.35085535049438,0.00124380191821613
258,1.37551307678223,0.00152263296108531
259,1.40126132965088,0.00190404988178735
260,1.41910171508789,0.00141812364924935
261,1.42926931381226,0.00183961773352754
262,1.43746995925903,0.00207148950336245
263,1.4423828125,0.00135809651769123
264,1.44689702987671,0.00106254213614219
265,1.44655179977417,0.00156311380727819
266,1.430091381073,0.00133357364396915
267,1.39921903610229,0.00114486685184324
268,1.35664701461792,0.00154230809856194
269,1.30505514144897,0.000890076046673961
270,1.2525577545166,0.000596179947207939
271,1.20558977127075,0.000941032544233746
272,1.16517782211304,0.000723224751352177
273,1.11272239685059,0.000540072762539813
274,1.04432535171509,0.000588638814131929
275,0.965610980987549,0.000395562218232498
276,0.876192569732666,0.000398704303907895
277,0.789936065673828,0.000365126514190195
278,0.714722156524658,0.000461081560603789
279,0.648435115814209,0.000344095420277002
280,0.594224452972412,0.000287649422020094
281,0.550510883331299,0.000232876254859348
282,0.514105796813965,0.000253261138645142
283,0.48454761505127,0.000223632051953851
284,0.459362030029297,0.000183938040943011
285,0.439189434051514,0.000197380634929431
286,0.422218322753906,0.000216675140488055
287,0.408079624176025,0.000196900838360776
288,0.396919250488281,0.000182034419724389
289,0.387728214263916,0.000234417725185448
290,0.380381107330322,0.000202030451234871
291,0.374364852905273,0.000197362202783438
292,0.370038509368896,0.000199343027241644
293,0.366872310638428,0.000188543124811001
294,0.364573001861572,0.000211784420372778
295,0.36297082901001,0.000214536451163714
296,0.362380027770996,0.000167917106765107
297,0.3623948097229,0.000231135715072643
298,0.363706588745117,0.000244654174934907
299,0.364943504333496,0.000202825699433265
300,0.366750240325928,0.000188330757922705
301,0.369401454925537,0.00024802133708436
302,0.372058391571045,0.000226545328844023
303,0.375028133392334,0.00019552416805685
304,0.378928661346436,0.000201773687160054
305,0.382994651794434,0.000219941365363359
306,0.387365341186523,0.000219854509665879
307,0.391910552978516,0.000226653697818814
308,0.396717548370361,0.000297906852890299
309,0.400891304016113,0.000246896684650946
310,0.406010150909424,0.000248768280710056
311,0.411139011383057,0.000253591307763023
312,0.416579246520996,0.00018375995017257
313,0.421388626098633,0.000229056609500526
314,0.426548957824707,0.000276986164027659
315,0.431474685668945,0.000220742130419606
316,0.436335563659668,0.000255833689568804
317,0.441211700439453,0.000292341235777983
318,0.445897102355957,0.000267178629670776
319,0.450303077697754,0.000228921568918606
320,0.454277515411377,0.000210189473174376
321,0.458058834075928,0.000174577110345001
322,0.461422443389893,0.000207822242307682
323,0.46489429473877,0.000161435964640173
324,0.467810153961182,0.00016606260522001
325,0.47050952911377,0.000226231971320523
326,0.472734451293945,0.000231540654509542
327,0.4742431640625,0.000251299968388985
328,0.475489616394043,0.000275418764986464
329,0.476529121398926,0.000248189961847124
330,0.476932525634766,0.0002593994140625
331,0.476850509643555,0.000285191676228724
332,0.476705074310303,0.000303993318442599
333,0.475736141204834,0.000215429096553991
334,0.474795818328857,0.000240549104999784
335,0.473253726959229,0.000311295424772838
336,0.471244812011719,0.000278662264466096
337,0.46891450881958,0.000313014448919845
338,0.465310096740723,0.000234971882074914
339,0.462703227996826,0.000223208691056421
340,0.458961486816406,0.000251878368298813
341,0.454559326171875,0.000281021785533341
342,0.450356483459473,0.000215821365153218
343,0.445679187774658,0.000249826268463637
344,0.440253734588623,0.000283291038482412
345,0.434736728668213,0.00025114067487874
346,0.428986072540283,0.000249942737592791
347,0.422674655914307,0.000235551764536713
348,0.415877819061279,0.00022777049145693
349,0.409698009490967,0.000225095423844577
350,0.402059078216553,0.00015416227181781
351,0.394978046417236,0.000168249881404661
352,0.387162208557129,0.000212979197942482
353,0.379555702209473,0.000185449811681871
354,0.371542453765869,0.000237937441769809
355,0.363413333892822,0.000227246802324404
356,0.354723930358887,0.00023077342082011
357,0.346283912658691,0.000340481765542275
358,0.337146759033203,0.00040284359077283
359,0.328398704528809,0.000379241155677445
360,0.319743633270264,0.000351066156196596
361,0.310680866241455,0.000342983502090287
362,0.301864147186279,0.000285095988235617
363,0.293398857116699,0.000343508140526567
364,0.284607887268066,0.000341170238931973
365,0.277248382568359,0.000341170238931973
366,0.27037239074707,0.00029648690007445
367,0.263399600982666,0.00023494091480753
368,0.256405353546143,0.000230134081512585
369,0.249123096466064,0.000199315650598345
370,0.241703987121582,0.000252858611747033
371,0.234264850616455,0.00030010904905912
372,0.226983547210693,0.000231599567209786
373,0.219676494598389,0.000261981121790468
374,0.212502002716064,0.000240257798483471
375,0.205313682556152,0.000234448761558573
376,0.198551654815674,0.0002233512578703
377,0.192165851593018,0.000244148075466914
378,0.185112476348877,0.000245040486881349
379,0.178306579589844,0.000252484262156413
380,0.172197818756104,0.00027886454593654
381,0.166307926177979,0.000300998711312544
382,0.16064453125,0.000276526086556514
383,0.154918670654297,0.000190958845233427
384,0.14923095703125,0.000223985594936813
385,0.143861293792725,0.00022904866814079
386,0.138284683227539,0.000211775831326019
387,0.133024215698242,0.000182259113592584
388,0.127754688262939,0.000228285011359898
389,0.123263359069824,0.000228535867521954
390,0.118694305419922,0.000193654601114729
391,0.11443042755127,0.000291687178945962
392,0.109563827514648,0.000292546494487342
393,0.105094432830811,0.000219829687449177
394,0.10137939453125,0.000240507511385317
395,0.0973706245422363,0.000198332160406927
396,0.0933842658996582,0.000205206249154568
397,0.0897731781005859,0.000234479793823641
398,0.085996150970459,0.000195305421820175
399,0.082338809967041,0.000218934213344641
400,0.0795674324035645,0.000182747490951591
401,0.0764303207397461,0.000184742247953009
402,0.0732431411743164,0.000234979623254091
403,0.0703797340393066,0.000207559497574985
404,0.0670390129089356,0.00025074199836517
405,0.0640101432800293,0.000205268289182076
406,0.0617718696594238,0.000233967235121307
407,0.0594196319580078,0.000246520660335938
408,0.0567631721496582,0.000180660252595371
409,0.0540609359741211,0.000173290784703453
410,0.0521373748779297,0.000238822594696532
411,0.049830436706543,0.000182423713200536
412,0.0473132133483887,0.000213550657541245
413,0.0453696250915527,0.000230256561568071
414,0.0432467460632324,0.000161798935397709
415,0.041417121887207,0.000144782712664401
416,0.0397000312805176,0.000212016193108982
417,0.0379905700683594,0.000215606338489892
418,0.0364289283752441,0.000276019115602733
419,0.0344090461730957,0.000250916044197116
420,0.0327696800231934,0.000227386837340667
421,0.0315079689025879,0.000238067368271424
422,0.0299568176269531,0.000180065227398865
423,0.0287790298461914,0.000212419046096056
424,0.0276532173156738,0.000263745697159974
425,0.0264172554016113,0.000198208307438874
426,0.0249238014221191,0.00016418715833021
427,0.0238747596740723,0.000157341811932681
428,0.0228896141052246,0.000134822702500854
429,0.0215725898742676,0.000180438608213617
430,0.0203604698181152,0.000212658680873735
431,0.0197029113769531,0.00022356290354446
432,0.0191230773925781,0.00021530240583877
433,0.0177750587463379,0.000159731195665831
434,0.0170073509216309,0.000165082098496245
435,0.0163326263427734,0.000186237724284884
436,0.0152592658996582,0.000200611915282847
437,0.0146784782409668,0.00020870002699546
438,0.0137062072753906,0.00020066177871456
439,0.0131158828735352,0.000204598150391935
440,0.0125288963317871,0.000215829793206142
441,0.0116662979125977,0.000195607878429237
442,0.011322021484375,0.000163437631502267
443,0.010831356048584,0.000216544978778102
444,0.0100040435791016,0.000214129086990022
445,0.0097503662109375,0.000220222377331051
446,0.00915241241455078,0.000238799744139651
447,0.00870275497436523,0.000190610845301166
448,0.00818490982055664,0.000184958735161351
449,0.00793123245239258,0.00023512665723386
450,0.00745391845703125,0.000210241391039358
451,0.00707197189331055,0.000168819210917349
452,0.00670719146728516,0.000203179636069841
453,0.00649642944335938,0.000171351152483243
454,0.00599288940429688,0.000163665628513186
455,0.00578641891479492,0.000202498094124696
456,0.00531291961669922,0.000193940874718356
457,0.00504636764526367,0.00018088162538406
458,0.00491142272949219,0.000178960739907478
459,0.00445079803466797,0.000179999553488221
460,0.00447463989257813,0.000203631241324192
461,0.00431013107299805,0.000197955774658352
462,0.00417757034301758,0.000206298073366579
463,0.00372934341430664,0.00020091543704626
464,0.00334310531616211,0.000199958010790619
465,0.00335931777954102,0.000181959460109503
466,0.00318288803100586,0.000172396252466623
467,0.00315952301025391,0.000212354812291375
468,0.00286769866943359,0.000180246968731051
469,0.00271368026733398,0.000216339079579337
470,0.00273609161376953,0.000194437331197733
471,0.00266695022583008,0.000213759242647124
472,0.00228357315063477,0.000179949018785664
473,0.00219392776489258,0.00019517032843046
474,0.00240707397460937,0.000157794918962676
475,0.00201129913330078,0.00015934639338277
476,0.00185346603393555,0.000186271905752417
477,0.00192880630493164,0.000180967083253943
478,0.00176763534545898,0.000153209493041579
479,0.00163888931274414,0.000187624363894519
480,0.00156211853027344,0.000202789823303253
481,0.00155019760131836,0.000167713871345609
482,0.00145816802978516,0.000174910213476051
483,0.00137615203857422,0.000193682777936827
484,0.00121259689331055,0.000195659017137024
485,0.000967502593994141,0.000201150690509563
486,0.00117588043212891,0.000179219739113226
487,0.0014033317565918,0.000145824879983331
488,0.00128698348999023,0.000170147365104882
489,0.00109195709228516,0.000203791967608537
490,0.00108242034912109,0.000190448546087137
491,0.00102901458740234,0.000176148577188932
492,0.000945091247558594,0.000221441451270509
493,0.000919342041015625,0.000214222509699748
494,0.000901222229003906,0.000198240424897669
495,0.000817298889160156,0.000203707155650192
496,0.000716686248779297,0.000223965291489955
497,0.000829219818115234,0.000183834175627054
498,0.000954151153564453,0.000196188215188962
499,0.000710964202880859,0.00022106738408247
500,0.000654697418212891,0.000180428526999641
501,0.000780582427978516,0.00016130351647847
502,0.000635623931884766,0.000203684830844307
503,0.000690460205078125,0.000178354945794082
504,0.00064849853515625,0.000167979383028112
505,0.000743389129638672,0.000208281248040156
506,0.000679492950439453,0.000206536002920929
507,0.000554084777832031,0.000204553692828473
508,0.000665187835693359,0.000186642615892798
509,0.000648021697998047,0.000204166503549571
510,0.000680923461914063,0.000193673386118277
511,0.000683307647705078,0.000181328575956728
512,0.000714302062988281,0.000160080987994059
513,0.000593662261962891,0.000206187827816469
514,0.000484943389892578,0.000212932218963651
515,0.000625133514404297,0.00017397696305834
516,0.000643253326416016,0.000166098200723488
517,0.000664710998535156,0.000175952265254956
518,0.000609874725341797,0.000174441605507169
519,0.000640869140625,0.000203881205239301
520,0.0005950927734375,0.000187362420188872
521,0.0005340576171875,0.000167857516545805
522,0.000474929809570313,0.000186623123191347
523,0.000573635101318359,0.000200716161057683
524,0.000639438629150391,0.00019691931369165
525,0.000724315643310547,0.000187493437786306
526,0.000610828399658203,0.000184061613708675
527,0.000585556030273438,0.000188986393527743
528,0.00057220458984375,0.000159480466938995
529,0.000676155090332031,0.000183363573632119
530,0.000653266906738281,0.000205834645255336
531,0.000542640686035156,0.000199037107645346
532,0.000523567199707031,0.000210673542350526
533,0.000651359558105469,0.000208686952873664
534,0.000586986541748047,0.000200021678652568
535,0.000659942626953125,0.000190353011320109
536,0.000689983367919922,0.000203492736410225
537,0.000617027282714844,0.000204166503549571
538,0.000664710998535156,0.000211251239112565
539,0.000701904296875,0.000204584814137292
540,0.000660419464111328,0.00022502672511484
541,0.000600337982177734,0.000229255054090535
542,0.000752449035644531,0.000196146488305038
543,0.000788211822509766,0.000188707062806926
544,0.000621318817138672,0.000195133044829484
545,0.000623703002929688,0.000200357872684987
546,0.000737667083740234,0.000219519172918305
547,0.000679969787597656,0.000211543795243527
548,0.000649929046630859,0.000192887556001228
549,0.000770092010498047,0.000200171672774417
550,0.000711441040039063,0.000212804041763021
551,0.000611305236816406,0.000171128080402915
552,0.000705718994140625,0.00020132243265421
553,0.000635147094726563,0.000242904424173
554,0.000624656677246094,0.000249709745011187
555,0.00067901611328125,0.000213346131544324
556,0.000607013702392578,0.000196720612952578
557,0.000651359558105469,0.000211646953797404
558,0.000585079193115234,0.000184722554716842
559,0.000669479370117188,0.000200453176388722
560,0.000708580017089844,0.000186442719090238
561,0.000586509704589844,0.000176360142354305
562,0.000708103179931641,0.000193109041119502
563,0.000704288482666016,0.000213124340224066
564,0.000567436218261719,0.000211865998950518
565,0.000731945037841797,0.000212311978958489
566,0.000585079193115234,0.000204268935298391
567,0.000650882720947266,0.000187769730278683
568,0.000676631927490234,0.000213806039906526
569,0.00067901611328125,0.000216683535332811
570,0.000509738922119141,0.000229520700844372
571,0.000675678253173828,0.000221392159906232
572,0.000673770904541016,0.000207006648126898
573,0.000674724578857422,0.000228913622874107
574,0.000626564025878906,0.000223603581669134
575,0.000630855560302734,0.000187207021337657
576,0.000619888305664063,0.000200978801606387
577,0.000655174255371094,0.000200530293831601
578,0.000550746917724609,0.000205454296861091
579,0.000719070434570313,0.00019182845366038
580,0.000663280487060547,0.00021088066041695
581,0.000620841979980469,0.000224986304298449
582,0.000600337982177734,0.000199812408069239
583,0.000829696655273438,0.000200425951383314
584,0.000673770904541016,0.000203720549359416
585,0.000554561614990234,0.000209474297663787
586,0.000720500946044922,0.000215006503859103
587,0.000699996948242188,0.000210889285922012
588,0.000589370727539063,0.000215082631820838
589,0.000741958618164063,0.00021331628845239
590,0.000590801239013672,0.000212491820934875
591,0.000651359558105469,0.000219593736449837
592,0.000658035278320313,0.000230062934138416
593,0.000575542449951172,0.000220044720302458
594,0.000674247741699219,0.000202565453533389
595,0.000627040863037109,0.000206046627438452
596,0.000667095184326172,0.000198982266413323
597,0.00063323974609375,0.00020588766126272
598,0.000607490539550781,0.000190305225951885
599,0.000535011291503906,0.000209530733411552
600,0.000607013702392578,0.000213929365429839
601,0.000591754913330078,0.000208943927106064
602,0.000528812408447266,0.000213801786033483
603,0.000579357147216797,0.000219602019723881
604,0.000568389892578125,0.000201372120148862
605,0.000535488128662109,0.000219137674199601
606,0.000582695007324219,0.000213439896954168
607,0.000606060028076172,0.000203635707656184
608,0.000635623931884766,0.000188379044147103
609,0.000558376312255859,0.00018365598413869
610,0.000564098358154297,0.000188209988163891
611,0.000533580780029297,0.000198400934203275
612,0.000594139099121094,0.00019814405690339
613,0.000530242919921875,0.00022606708358809
614,0.000607967376708984,0.000203899048078808
615,0.000562667846679688,0.000199411452406616
616,0.000502586364746094,0.000194301634245814
617,0.000519752502441406,0.000209738980009327
618,0.000623703002929688,0.000225038849944005
619,0.000425338745117188,0.000213354657375308
620,0.000559806823730469,0.000203036343674131
621,0.000604629516601563,0.000208896040630418
622,0.000520229339599609,0.00021927044468994
623,0.000472068786621094,0.000227262810693437
624,0.000469207763671875,0.00021040139047567
625,0.000505924224853516,0.000231237999702977
626,0.000505924224853516,0.000199735013451742
627,0.000636100769042969,0.000176478714205176
628,0.000721931457519531,0.000185934699837853
629,0.000474929809570313,0.000196280909838683
630,0.000441074371337891,0.000230473704709119
631,0.000433444976806641,0.000206980285129555
632,0.000545024871826172,0.000201742132199346
633,0.000467777252197266,0.000205538387892268
634,0.000524520874023438,0.000221855886265268
635,0.000493526458740234,0.000224083025874079
636,0.000526905059814453,0.000209916693716575
637,0.000535964965820313,0.000189750036241859
638,0.000486373901367188,0.000199320213633352
639,0.000521659851074219,0.000224524992661997
640,0.000474452972412109,0.000204855813999033
641,0.000516414642333984,0.000183621315712871
642,0.000495433807373047,0.000193800137266244
643,0.000471115112304688,0.000228101672284588
644,0.000546455383300781,0.000226002704522684
645,0.000452995300292969,0.00021526438408462
646,0.000506401062011719,0.000192977123148819
647,0.000475883483886719,0.000214311647932474
648,0.000553131103515625,0.000209361380529563
649,0.00048065185546875,0.000213652847118833
650,0.000519752502441406,0.000222935523129634
651,0.000406742095947266,0.000234111020070052
652,0.000460624694824219,0.000211410474278181
653,0.000580787658691406,0.000203278090999378
654,0.00054931640625,0.000221166100591279
655,0.000505924224853516,0.000225390186259803
656,0.000165462493896484,0.000245566969900987
657,0.00112056732177734,0.000207300807183115
658,0.000762939453125,0.00021498958287345
659,0.000553607940673828,0.00023884544306728
660,0.000457286834716797,0.000223497803145294
661,0.000563144683837891,0.000212940761367079
662,0.000538349151611328,0.000207305194455359
663,0.000456333160400391,0.000229251086882157
664,0.000531673431396484,0.000236238044967762
665,0.000455856323242188,0.000209422189628736
666,0.000463485717773438,0.000215888780364
667,0.000578880310058594,0.000204802530883688
668,0.000440120697021484,0.000224192585066454
669,0.00060272216796875,0.0002223268271081
670,0.000584125518798828,0.000193786057899438
671,0.000516891479492188,0.000220420523020679
672,0.000467300415039063,0.00024583348824643
673,0.000471115112304688,0.000223892183836142
674,0.000476837158203125,0.00020648315337991
675,0.000508308410644531,0.00021203764073259
676,0.000412940979003906,0.000228089710269479
677,0.000513076782226563,0.000223229063318688
678,0.00049591064453125,0.000212097682540599
679,0.000455856323242188,0.000214158816818279
680,0.000407218933105469,0.000218988211178326
681,0.000449180603027344,0.000210953965968287
682,0.000459194183349609,0.00020719109518433
683,0.000428199768066406,0.000216410536187809
684,0.000435352325439453,0.000214180049883323
685,0.000504016876220703,0.000233877810734639
686,0.000489234924316406,0.000218780454257015
687,0.000543117523193359,0.000221079726056636
688,0.000431537628173828,0.000238849250916574
689,0.000457286834716797,0.000235466804474604
690,0.000435829162597656,0.000208639007417731
691,0.000477313995361328,0.000201832276141378
692,0.000531673431396484,0.000224054612893952
693,0.000376701354980469,0.000227154732309026
694,0.000515460968017578,0.000218160165345962
695,0.000458717346191406,0.000209595832699594
696,0.000431537628173828,0.000221790284818994
697,0.000470638275146484,0.000228826198173354
698,0.000465869903564453,0.000211337327073721
699,0.000475883483886719,0.000195561377090548
700,0.000499725341796875,0.000207107675195814
701,0.000427722930908203,0.000232442341782909
702,0.000462532043457031,0.000216826197965205
703,0.000422954559326172,0.000208503829088931
704,0.000422954559326172,0.00020050761530967
705,0.000428676605224609,0.000201985428514361
706,0.000391483306884766,0.000209925358829527
707,0.000401973724365234,0.000208856852620241
708,0.000436782836914063,0.000205418879812584
709,0.000425815582275391,0.000226982501233097
710,0.000502109527587891,0.000217964137513057
711,0.000443458557128906,0.000223603581669134
712,0.000345230102539062,0.000223871871917619
713,0.000423431396484375,0.000223045645971804
714,0.000418186187744141,0.000232489290347674
715,0.000408172607421875,0.000229385933475379
716,0.000403404235839844,0.000217893190398301
717,0.00037384033203125,0.000200121687225221
718,0.000401973724365234,0.000230907378393884
719,0.000457763671875,0.000224472326730098
720,0.000347137451171875,0.000205401168998238
721,0.000431537628173828,0.00021547553115263
722,0.000433444976806641,0.000231642760334095
723,0.000401020050048828,0.000223961230579708
724,0.000456333160400391,0.000219655853391285
725,0.000395298004150391,0.000212217715194542
726,0.000512599945068359,0.000218734721252632
727,0.000436782836914063,0.000218614106563972
728,0.000395774841308594,0.000208961337649141
729,0.000413894653320313,0.000227710588110167
730,0.000446796417236328,0.000232403210734032
731,0.000444412231445313,0.000221203107924332
732,0.000468730926513672,0.00023284500888378
733,0.000369548797607422,0.000212371943205593
734,0.000412464141845703,0.000212709996059893
735,0.000406265258789063,0.000221046812594185
736,0.000484466552734375,0.000215606338489892
737,0.000417232513427734,0.000208608490935607
738,0.000459671020507813,0.000217136374981044
739,0.000448226928710938,0.000219589594695644
740,0.000413417816162109,0.000218226858049677
741,0.000395774841308594,0.000215728634839515
742,0.000420570373535156,0.000230505272125334
743,0.000393867492675781,0.000232113435939466
744,0.000422000885009766,0.000219866919723351
745,0.000356674194335937,0.000223143487318506
746,0.000351905822753906,0.000223953108538305
747,0.000399112701416016,0.000236626566175374
748,0.000367641448974609,0.000231261597423903
749,0.000357627868652344,0.000225491043718631
750,0.000427722930908203,0.000237417024741443
751,0.000458240509033203,0.00023376890009308
752,0.000382900238037109,0.0002411759195218
753,0.000391483306884766,0.000250959536795021
754,0.000444889068603516,0.000230942824745364
755,0.000372886657714844,0.000235698441602175
756,0.0003509521484375,0.000213980375890072
757,0.000371456146240234,0.000237443838755407
758,0.000403404235839844,0.000235910575835186
759,0.000378131866455078,0.000218684819794663
760,0.000459194183349609,0.000212594519472878
761,0.000506877899169922,0.000230469758478076
762,0.000425815582275391,0.00023885686643305
763,0.000370502471923828,0.000220676197882168
764,0.000523090362548828,0.000234223654678478
765,0.000388145446777344,0.000239693096085381
766,0.000423431396484375,0.000241511312807706
767,0.000422477722167969,0.000227590734115807
768,0.000442981719970703,0.00022103035402504
769,0.000423431396484375,0.000235231072896131
770,0.000304698944091797,0.000210785756565787
771,0.000401496887207031,0.000207725941160258
772,0.000450611114501953,0.000199484413379524
773,0.000368595123291016,0.000221769780387394
774,0.000382423400878906,0.000215728634839515
775,0.000437259674072266,0.000226501163656188
776,0.000421524047851563,0.000234184821277784
777,0.000438690185546875,0.000238025340987557
778,0.000425815582275391,0.00022868306747974
779,0.000380039215087891,0.000220325600447221
780,0.000340938568115234,0.00021027167054073
781,0.000317573547363281,0.000230513163303924
782,0.000379085540771484,0.000235041543508996
783,0.000410556793212891,0.000221978836722454
784,0.000352382659912109,0.000226529269771993
785,0.000338554382324219,0.000224107376989926
786,0.00030517578125,0.000231395272386399
787,0.000337123870849609,0.000222617084473782
788,0.000416278839111328,0.000239655148947316
789,0.000390529632568359,0.000235196272825981
790,0.000369071960449219,0.000227786463022159
791,0.000347137451171875,0.000222343189708094
792,0.000418663024902344,0.000232093843512936
793,0.000372886657714844,0.000234882840176855
794,0.000442981719970703,0.00022009844569018
795,0.000379562377929687,0.000234530212496862
796,0.000406265258789063,0.000225050974119933
797,0.000437736511230469,0.000226384686860451
798,0.000386714935302734,0.000236422768323105
799,0.000420093536376953,0.000219324359743213
800,0.000407218933105469,0.00023481700489889
801,0.000437259674072266,0.000235377949802439
802,0.000459671020507813,0.000244468230743593
803,0.000361919403076172,0.000234153749920174
804,0.0004425048828125,0.000231041258299155
805,0.000398159027099609,0.000247588252749389
806,0.000398159027099609,0.000246550173165008
807,0.0003509521484375,0.000247257424263006
808,0.000435829162597656,0.000235922141307465
809,0.000431537628173828,0.000236349665925072
810,0.000322818756103516,0.000239810694053676
811,0.000414848327636719,0.000233059740365604
812,0.000307559967041016,0.000229211411021823
813,0.000385761260986328,0.000240235084439603
814,0.000363826751708984,0.000237574035202975
815,0.000405311584472656,0.000237551064544454
816,0.000424861907958984,0.000247110247211714
817,0.000408172607421875,0.000238285027292283
818,0.000377178192138672,0.000253016823686475
819,0.000380516052246094,0.00023504541298331
820,0.000369071960449219,0.000237401701087976
821,0.000393867492675781,0.000245633626597858
822,0.000351428985595703,0.000247029262457217
823,0.00031280517578125,0.000236557371499357
824,0.000378608703613281,0.000221038583462801
825,0.000387668609619141,0.000230094557909581
826,0.000415325164794922,0.000241782301774048
827,0.000347137451171875,0.000244780536303033
828,0.000387191772460937,0.000245729876572036
829,0.000246047973632812,0.000231391341872103
830,0.000414371490478516,0.000231273395381453
831,0.000308036804199219,0.000228651248491485
832,0.000401496887207031,0.000235632834201505
833,0.000357627868652344,0.000239142273233909
834,0.000377178192138672,0.000223400116976441
835,0.000425815582275391,0.000216402130752652
836,0.000325679779052734,0.000240367552770392
837,0.000315189361572266,0.0002642004908619
838,0.000417232513427734,0.000237006775791114
839,0.000394344329833984,0.000239279147578742
840,0.000359058380126953,0.000249986399526497
841,0.000325202941894531,0.000255192983104451
842,0.000349044799804687,0.000256628779260591
843,0.000368118286132812,0.000229302655237345
844,0.000358104705810547,0.000232493202300129
845,0.000361442565917969,0.000222698778819458
846,0.000312328338623047,0.000224322363708331
847,0.000357151031494141,0.000235072497520062
848,0.000423908233642578,0.000226412807435289
849,0.000355243682861328,0.00023285282077075
850,0.000379085540771484,0.0002411759195218
851,0.000308036804199219,0.000237286742144095
852,0.000315189361572266,0.000231033385158184
853,0.000383853912353516,0.000242638436846195
854,0.000290870666503906,0.000239108042405206
855,0.000384330749511719,0.000256862577354926
856,0.000349044799804687,0.000242094315446792
857,0.000405788421630859,0.000251654396094828
858,0.000313758850097656,0.000260972414725319
859,0.000352382659912109,0.00024356998870273
860,0.000383853912353516,0.000241179690576527
861,0.000280857086181641,0.000253992673489133
862,0.000356674194335937,0.00026373190328966
863,0.000335216522216797,0.000229568246909136
864,0.000335693359375,0.000231320581194386
865,0.000321865081787109,0.000250894295070868
866,0.00030517578125,0.00022039576455161
867,0.000277996063232422,0.000201620373946788
868,0.000320911407470703,0.000216780052681531
869,0.000279426574707031,0.000208564888215624
870,0.000311374664306641,0.000204793649016655
871,0.000265598297119141,0.000247507424398981
872,0.000368118286132812,0.000241620497695879
873,0.000271797180175781,0.000225293320621237
874,0.000313282012939453,0.000222179509481472
875,0.000269889831542969,0.000237183231455056
876,0.000240325927734375,0.000247925976703978
877,0.000291824340820312,0.000243864797704647
878,0.000353813171386719,0.000258781594942423
879,0.00017547607421875,0.000259945798894542
880,0.000361442565917969,0.00024301672568966
881,0.000387191772460937,0.00022676201500436
882,0.000275611877441406,0.000243980384930916
883,0.00022125244140625,0.000243875985959542
884,0.000335693359375,0.000217717810174091
885,0.000243186950683594,0.000255755467099941
886,0.000218868255615234,0.000247441272473598
887,0.000317573547363281,0.000236407380223094
888,0.000268459320068359,0.000226344508550283
889,0.000242233276367187,0.000248548824425352
890,0.000318050384521484,0.000263324659048802
891,0.000264167785644531,0.000267117349386912
892,0.000265598297119141,0.000238162857244303
893,0.000270843505859375,0.000234021650626515
894,0.000310897827148437,0.000234863478775496
895,0.000206947326660156,0.000252793860141763
896,0.000229358673095703,0.0002510972136558
897,0.000315189361572266,0.000247353042386118
898,0.000291347503662109,0.000262092189573642
899,0.000290870666503906,0.000240295650452021
900,0.000344753265380859,0.000275147849302114
901,0.000312328338623047,0.000275167681445332
902,0.000331878662109375,0.000253411921390417
903,0.000304698944091797,0.000265573897687794
904,0.000372409820556641,0.000255499298853155
905,0.000302314758300781,0.00024501821620979
906,0.000238418579101562,0.000244475671226627
907,0.000207901000976562,0.000251147917684691
908,0.0002593994140625,0.000267035620466268
909,0.000327587127685547,0.000247176487729513
910,0.000244617462158203,0.000239905489136023
911,0.000397205352783203,0.000239560254804239
912,0.000341892242431641,0.000258929162969128
913,0.000288963317871094,0.000282352027757209
914,0.000351905822753906,0.000228830172747989
915,0.000365257263183594,0.000232352330518205
916,0.000250816345214844,0.000241251329416558
917,0.000231266021728516,0.000252592304551771
918,0.000244140625,0.000247624984186836
919,0.000318050384521484,0.000233636583203503
920,0.000149250030517578,0.000238464351075062
921,0.000392913818359375,0.000242154416441468
922,0.000303745269775391,0.00025290896264523
923,0.000220775604248047,0.000258324302492977
924,0.000306129455566406,0.000235138261263836
925,0.000327587127685547,0.000235852739966776
926,0.000245571136474609,0.000220725649131614
927,0.000226497650146484,0.000274697936680814
928,0.000333309173583984,0.000270964367186398
929,0.000258445739746094,0.000245010792202752
930,0.000248908996582031,0.000227330833685493
931,0.000329494476318359,0.000248255914271827
932,0.000371456146240234,0.000259644728955195
933,0.000310897827148437,0.000274094692296752
934,0.000189781188964844,0.000282963382021917
935,0.000241279602050781,0.000258197524465196
936,0.000134944915771484,0.000249768013532575
937,0.000309467315673828,0.000239518489470923
938,0.000119686126708984,0.00027779928803875
939,0.000342369079589844,0.000276032295457848
940,0.000239849090576172,0.000279984226940041
941,0.000158309936523437,0.000239031956346382
942,0.000166893005371094,0.000265512247031701
943,0.000255584716796875,0.000289766372906997
944,0.000216007232666016,0.000269800515105324
945,0.000164031982421875,0.000252239194728391
946,0.000188827514648437,0.000258282050064732
947,0.000113964080810547,0.000254193118696703
948,0.000254631042480469,0.000236264992785675
949,0.000224113464355469,0.000259224047005271
950,0.000396728515625,0.000229762291226624
951,0.000207901000976562,0.000226372634116171
952,0.000276565551757812,0.000283887556108933
953,-0.0000338554382324219,0.00026035134171679
954,0.00029754638671875,0.000268441956874988
955,0.000186443328857422,0.000267253508713415
956,0.000243186950683594,0.000287301411681363
957,0.000323772430419922,0.00027483695888953
958,0.0000939369201660156,0.000292005046669772
959,0.000221729278564453,0.000281319375389384
960,0.000260353088378906,0.000274850195432456
961,0.000211238861083984,0.0002430953058831
962,0.000351905822753906,0.000283124045314874
963,0.000158786773681641,0.000289722427533712
964,0.000218868255615234,0.000289772650273424
965,0.000318527221679687,0.000253842235711885
966,0.000367164611816406,0.000301379191180577
967,0.000126361846923828,0.000244899405090568
968,0.000222682952880859,0.00030544983955909
969,0.000444889068603516,0.000310962178877911
970,0.000162124633789062,0.00029636417182179
971,0.0003814697265625,0.000260902704967758
972,0.000383853912353516,0.000250662186971392
973,0.000288009643554687,0.000273549969992814
974,0.000258445739746094,0.000289734984034792
975,0.0000944137573242188,0.000272263578492057
976,0.000171184539794922,0.000310529010336833
977,0.000387668609619141,0.000269827481673618
978,0.000165462493896484,0.000288810626689876
979,0.000280380249023437,0.000306857956494458
980,0.000279426574707031,0.000280308876555072
981,-0.0000491142272949219,0.000248848699523054
982,0.000406742095947266,0.000247771855483371
983,0.000299453735351562,0.000292788887443341
984,0.000317573547363281,0.000253031201684707
985,0.000187873840332031,0.000276657615334193
986,0.000193119049072266,0.000260637637851527
987,0.000354290008544922,0.000267450816609404
988,0.000105381011962891,0.00027474428523328
989,0.000431537628173828,0.000254886299233685
990,0.000339508056640625,0.000380247064037387
991,0.000108242034912109,0.000260120679364596
992,0.000158309936523437,0.000286616816399418
993,0.000188827514648437,0.000298943053768118
994,0.0000319480895996094,0.000284348516767036
995,0.000328540802001953,0.000268069012339141
996,0.0000185966491699219,0.000267158204471306
997,0.000417709350585938,0.00035504361093495
998,0.000377178192138672,0.000391884724584373
999,0.000451564788818359,0.00030434614899381
1000,0.000308513641357422,0.000268143642742767
1001,0.000504493713378906,0.000284354913737077
1002,0.0000700950622558594,0.000312240602822969
1003,0.000173568725585937,0.000312333798542784
1004,0.000524997711181641,0.000389005612375692
1005,0.000263214111328125,0.000312351269644587
1006,0.000401973724365234,0.000335395203743409
1007,0.000143527984619141,0.000358185651039927
1008,0.000649452209472656,0.000313682024979771
1009,-0.000245094299316406,0.000309172917889544
1010,0.000413894653320313,0.000292067333107772
1011,0.000784397125244141,0.000335395203743409
1012,-0.000252723693847656,0.000390508381005671
1013,0.000360488891601562,0.000375093578171454
1014,0.000501155853271484,0.000465205420514714
1015,0.000473976135253906,0.000465744698683356
1016,0.000411510467529297,0.000378434503870845
1017,0.000436782836914063,0.000434616078420732
1018,0.000743865966796875,0.000418262028966802
1019,-0.0000138282775878906,0.000341537922448721
1020,0.000985145568847656,0.00029080656001826
1021,0.000716209411621094,0.000392487674465698
1022,0.000195026397705078,0.000398868511155913
1023,0.000630378723144531,0.000480462597113654
1024,0.000720500946044922,0.000514291367991721
1025,0.000284194946289062,0.000566607760067076
1026,0.000764369964599609,0.000467405502025245
1027,0.0000214576721191406,0.000505458183893027
1028,0.000902652740478516,0.000494367693382589
1029,0.0000767707824707031,0.000387440681315499
1030,0.000759601593017578,0.000316975864529555
1031,0.0006256103515625,0.000503308792189656
1032,0.000321865081787109,0.000423946582703009
1033,0.000407695770263672,0.00059285108459945
1034,0.000786304473876953,0.000583648681640625
1035,0.00028228759765625,0.000428563878616516
1036,0.00116968154907227,0.000521805409935516
1037,0.000586032867431641,0.000674036605344874
1038,0.000159263610839844,0.000618063367835255
1039,0.000642776489257813,0.000539371754215504
1040,0.000232696533203125,0.000642547226948513
1041,0.00109672546386719,0.000548083192644307
1042,-0.000000476837158203125,0.000542613030451303
1043,0.00124454498291016,0.00066193516867298
1044,-0.0000844001770019531,0.00064590158513666
1045,0.000660419464111328,0.000788083588172408
1046,-0.000214576721191406,0.000811033705928822
1047,0.00106954574584961,0.000828922392780546
1048,0.000618934631347656,0.000736839166419896
1049,0.000684738159179688,0.00072555501879692
1050,-0.000771999359130859,0.000647993452061458
1051,0.000779151916503906,0.000793016751720354
1052,0.00166511535644531,0.000953704833496109
1053,0.000467777252197266,0.00111085661152352
1054,0.00133323669433594,0.000847893165406017
1055,0.000603675842285156,0.000775594656834502
1056,0.000277519226074219,0.0012232277512555
1057,0.00144004821777344,0.000910522769836382
1058,0.000225067138671875,0.000825897375231613
1059,0.00219869613647461,0.000814006700223319
1060,0.000664234161376953,0.000760474993018019
1061,0.00116252899169922,0.000980518197336358
1062,0.00092315673828125,0.00123169243985165
1063,0.00151920318603516,0.00123072326389414
1064,0.00108718872070312,0.00141927245924504
1065,0.00173807144165039,0.00126863778292205
1066,-0.000332832336425781,0.0012842109081694
1067,0.000757694244384766,0.00142357223995247
1068,-0.00158548355102539,0.00140662532672016
1069,0.00106716156005859,0.00113028392084855
1070,0.000945568084716797,0.00112597560468965
1071,-0.000581264495849609,0.00107406593449565
1072,-0.00150346755981445,0.00151250702121382
1073,0.00107574462890625,0.00171581673662468
1074,-0.000774383544921875,0.00203222783101018
1075,-0.000500202178955078,0.00188614310690077
1076,0.00295639038085937,0.00214275997089135
1077,-0.000503063201904297,0.00165517424114601
1078,0.00117397308349609,0.0016272623974871
1079,0.000101566314697266,0.00162912139112175
1080,-0.000775337219238281,0.00198246847765036
1081,0.00444173812866211,0.00241431463647028
1082,-0.000836372375488281,0.00229059785967331
1083,0.00295352935791016,0.00215192208772339
1084,0.00242424011230469,0.00197705863485663
1085,-0.000397205352783203,0.00266212304966102
1086,0.000851631164550781,0.0023723368897358
1087,0.00162553787231445,0.00197192915178596
1088,0.000524044036865234,0.0021051599633538
1089,0.00455331802368164,0.00293928798579188
1090,0.000876903533935547,0.0026045640006533
1091,-0.00419902801513672,0.00213213937568392
1092,0.0021514892578125,0.00179480594223251
1093,0.000113964080810547,0.00205121489889994
1094,0.00129127502441406,0.00283402997222751
1095,0.00170803070068359,0.00242384315320074
1096,0.00153112411499023,0.00342871475328164
1097,-0.000367164611816406,0.00283172868888233
1098,0.00152778625488281,0.00284714447990493
1099,0.000199794769287109,0.00236466926609015
1100,-0.00183200836181641,0.00246975650671156
