Wavelength (nm),Absorbance (AU),Std.Dev.
190,0.885841369628906,0.366230468229194
191,0.895459175109863,0.198897757637345
192,0.647164344787598,0.179777703242109
193,0.976933002471924,0.187972427294142
194,0.892644882202148,0.147506201662197
195,0.747994899749756,0.783414969011874
196,1.70045709609985,1.68362547098887
197,1.48242807388306,0.784621630797689
198,1.04423904418945,0.0987946344254574
199,1.06221580505371,0.24902535232107
200,1.74236869812012,0.430955161326812
201,1.42705869674683,0.211465809757249
202,1.98098802566528,0.0780898968988989
203,1.84241390228271,0.0349325906924547
204,1.84962558746338,0.0101454310379847
205,1.90198802947998,0.0124400968476417
206,1.88583660125732,0.00965359322254275
207,1.89664316177368,0.00730461038966966
208,1.90456676483154,0.00490203886869827
209,1.92110061645508,0.0031473078819223
210,1.93823766708374,0.00491693021248453
211,1.95807552337646,0.00390040437087539
212,1.96980762481689,0.00559862416770929
213,1.98369598388672,0.00480794734003304
214,2.00309896469116,0.00472027131371712
215,2.00495481491089,0.00516802368365536
216,2.01713705062866,0.00542286286163115
217,2.01929044723511,0.00373986663205725
218,2.01326608657837,0.00389795614951788
219,1.99351596832275,0.00485987041928574
220,1.98664522171021,0.00507390874278358
221,1.95441627502441,0.00275914181504876
222,1.90833759307861,0.00124054518131794
223,1.86574840545654,0.00206828368843651
224,1.82602882385254,0.00410878136556994
225,1.78100728988647,0.00417522406005385
226,1.73251247406006,0.00287562395664156
227,1.67305517196655,0.00154769559730297
228,1.61728239059448,0.00214737302245439
229,1.56654024124145,0.00147114827535655
230,1.51438665390015,0.00111780394039764
231,1.46449136734009,0.00091044285665726
232,1.41866779327393,0.00115320008189819
233,1.37383413314819,0.00078869269576418
234,1.33531713485718,0.000711152066612101
235,1.29967832565308,0.000529886029567999
236,1.26546192169189,0.000576448596355093
237,1.23612546920776,0.000398877631798712
238,1.20978879928589,0.000386923899325744
239,1.18670177459717,0.000512775346776111
240,1.16594982147217,0.000527284451082314
241,1.14752674102783,0.000511980125599199
242,1.13466167449951,0.000397882251136442
243,1.12307357788086,0.0005218472397011
244,1.1152229309082,0.000478573498826738
245,1.10951519012451,0.000544714192495845
246,1.10888957977295,0.00058799570909214
247,1.11065721511841,0.000533457827954509
248,1.11530828475952,0.000637499716468823
249,1.12420701980591,0.000674543760893669
250,1.13660764694214,0.000419746725570851
251,1.15081834793091,0.000444539097044593
252,1.16893577575684,0.00069375070757658
253,1.18772602081299,0.00101685834237952
254,1.20852470397949,0.00102501135578494
255,1.22802019119263,0.000923314356943855
256,1.25191020965576,0.00126969263078093
257,1.27550220489502,0.000897370539357831
258,1.29589509963989,0.00117227329002501
259,1.31596755981445,0.00141430126197723
260,1.32931041717529,0.00138363650119674
261,1.33792638778687,0.00116953915018078
262,1.34379053115845,0.000809039644870349
263,1.34397506713867,0.000956066944912664
264,1.34561204910278,0.00171940893850038
265,1.34184598922729,0.00178305985291958
266,1.32234048843384,0.00135287903737292
267,1.29014015197754,0.0013184512071062
268,1.25269842147827,0.000787307678780992
269,1.20379877090454,0.000804277151068811
270,1.1541428565979,0.000858840776334857
271,1.10977220535278,0.000526621686243755
272,1.07109260559082,0.000554615528178953
273,1.02389860153198,0.000732997826778334
274,0.962297439575195,0.000625645241113396
275,0.890267372131348,0.000432535198722021
276,0.813556671142578,0.000425915690291895
277,0.738516330718994,0.000526193206959322
278,0.673296928405762,0.000413001542792884
279,0.618033409118652,0.000307124591184545
280,0.570969104766846,0.000253569788098935
281,0.532748222351074,0.000196220663297358
282,0.50126314163208,0.000180801157549178
283,0.47506856918335,0.000175362010869932
284,0.452775001525879,0.000177578152653616
285,0.434392929077148,0.00020186381701096
286,0.419052600860596,0.000225083302062946
287,0.406105041503906,0.000185773211075966
288,0.395627498626709,0.000197652309422264
289,0.386741161346436,0.000242799562560392
290,0.379950046539307,0.000217571551995837
291,0.373889446258545,0.000195803063455442
292,0.369612693786621,0.000219278740176359
293,0.366764545440674,0.000259118769801967
294,0.364174842834473,0.0002754848015676
295,0.362448692321777,0.000263241752610567
296,0.362154960632324,0.000255307003990612
297,0.361876487731934,0.000234033309445834
298,0.362479209899902,0.0002338505878295
299,0.363523483276367,0.000215989863726844
300,0.365470886230469,0.000239225927972617
301,0.367703914642334,0.000237826566016621
302,0.369705677032471,0.000303586157620636
303,0.373043060302734,0.000298577746437645
304,0.376168727874756,0.000218051746196368
305,0.37937068939209,0.00019872156388017
306,0.383909225463867,0.000243633458737728
307,0.38777494430542,0.000152814220420489
308,0.392291069030762,0.000198858818343786
309,0.396069049835205,0.000392682275787168
310,0.400820732116699,0.000307527067213857
311,0.405667304992676,0.00021299200859289
312,0.410126209259033,0.000198767325898941
313,0.415084838867188,0.000256720906957874
314,0.419317722320557,0.000253225224758116
315,0.424124717712402,0.000289477466899499
316,0.428207397460938,0.000250335420847634
317,0.432328701019287,0.000234212005334339
318,0.436572551727295,0.000275200731841388
319,0.440620422363281,0.000309666729527294
320,0.444334983825684,0.000231972333533758
321,0.447632312774658,0.00020862156997454
322,0.450746536254883,0.000232864538109832
323,0.453041076660156,0.000343968525833741
324,0.455594539642334,0.000323440440540031
325,0.458193778991699,0.000336667295283859
326,0.459468364715576,0.000258556567426003
327,0.460805416107178,0.000264028312689172
328,0.461540222167969,0.000342808444186376
329,0.462141990661621,0.00034081817048337
330,0.461885929107666,0.000301511944059294
331,0.461832046508789,0.000269928582311012
332,0.461201190948486,0.000288205364494691
333,0.45975923538208,0.000317904154205332
334,0.457698345184326,0.000259539622393403
335,0.45604133605957,0.000293663561958424
336,0.453214645385742,0.000263407539392579
337,0.45106315612793,0.00027318399888844
338,0.447519779205322,0.00021313287492724
339,0.443826198577881,0.000228265090332646
340,0.43993091583252,0.000268814383999932
341,0.435652732849121,0.000269517203237938
342,0.430427551269531,0.000252844223934467
343,0.425603866577148,0.000232903591649294
344,0.420859336853027,0.000228559744225516
345,0.415031433105469,0.000246107109119728
346,0.408633232116699,0.000231320581194386
347,0.402431011199951,0.000269098435809576
348,0.395755767822266,0.000287181091920706
349,0.388656616210937,0.000224848819170023
350,0.381629943847656,0.000200494006965196
351,0.374589443206787,0.00023830029414438
352,0.366915225982666,0.000291169122883017
353,0.359107971191406,0.000248643945930152
354,0.35153865814209,0.000238124666250128
355,0.343655586242676,0.000214972660555909
356,0.334619045257568,0.000220688561733363
357,0.32644510269165,0.000236488156577493
358,0.317627906799316,0.000301379191180577
359,0.309134006500244,0.000331659354174166
360,0.300178527832031,0.000325738069447888
361,0.292075157165527,0.000295626732354779
362,0.283928394317627,0.000258324302492977
363,0.275060653686523,0.000288363107199405
364,0.267388820648193,0.000309619733779476
365,0.260750770568848,0.000309619733779476
366,0.253783226013184,0.000304788104818884
367,0.246857166290283,0.000273476814951819
368,0.240078449249268,0.000239552661648884
369,0.233334541320801,0.000236083998428628
370,0.226196765899658,0.000212144846325645
371,0.218836307525635,0.000238494860843748
372,0.212295055389404,0.000196285543422089
373,0.205455303192139,0.000185841738597994
374,0.198383331298828,0.000259020472473481
375,0.191458225250244,0.00022867511314775
376,0.185412883758545,0.00025171221445196
377,0.179125308990479,0.000224553346124467
378,0.172184467315674,0.00026448262041722
379,0.165859699249268,0.000221293544239911
380,0.160330295562744,0.000264489497866298
381,0.154630661010742,0.000262501345872977
382,0.149118423461914,0.000224678868448291
383,0.143461227416992,0.000185621381532316
384,0.138484954833984,0.000210664908012018
385,0.133361339569092,0.00020899615438411
386,0.128438949584961,0.000221995224971772
387,0.123261451721191,0.000198350502417547
388,0.118436813354492,0.000240972194930026
389,0.114016532897949,0.000252383380858108
390,0.1098313331604,0.000208804590499325
391,0.105579853057861,0.000231293057306707
392,0.101021289825439,0.000207138412784398
393,0.0970945358276367,0.000193099621396021
394,0.0936331748962402,0.00023361322538458
395,0.0898079872131348,0.000190696712493133
396,0.0860199928283691,0.000201557211081105
397,0.0827898979187012,0.000203774115392865
398,0.0789675712585449,0.000172034493896988
399,0.0755691528320313,0.000182757444247585
400,0.0730729103088379,0.000230974328046639
401,0.0699210166931152,0.000189029700955312
402,0.0670804977416992,0.000223184241887056
403,0.0642318725585938,0.000181619255157322
404,0.0611782073974609,0.000254529225427433
405,0.0586614608764648,0.000247029262457217
406,0.0566539764404297,0.0002516182528749
407,0.0541758537292481,0.000270776337367441
408,0.0518946647644043,0.000242458449107873
409,0.0493378639221191,0.000223701178988735
410,0.0472445487976074,0.000264427594385122
411,0.0450630187988281,0.000192840398687857
412,0.0432581901550293,0.000231430644011133
413,0.0413064956665039,0.000246129281264321
414,0.0394368171691895,0.000164513656987372
415,0.0374574661254883,0.000179954072894522
416,0.0362110137939453,0.000212774122639133
417,0.0342392921447754,0.000221264773058064
418,0.0331034660339355,0.000299186344187852
419,0.0315742492675781,0.000261592013183497
420,0.0296521186828613,0.000231548510402279
421,0.0285844802856445,0.000214069614946939
422,0.0272436141967773,0.000192528870732307
423,0.0257997512817383,0.000205892078647131
424,0.0248880386352539,0.000265964019982198
425,0.0241198539733887,0.000224597894333704
426,0.0225100517272949,0.000170968565006203
427,0.0213656425476074,0.000172875666015372
428,0.0206398963928223,0.000144023767702887
429,0.0195612907409668,0.000198134876554651
430,0.018272876739502,0.000228587597227536
431,0.0177946090698242,0.000233141676576191
432,0.0169482231140137,0.000211238322892375
433,0.0159249305725098,0.00017645809873706
434,0.0151052474975586,0.00016761351776562
435,0.0147800445556641,0.000219780034605421
436,0.0139412879943848,0.000211268459511135
437,0.0131182670593262,0.000245077600169996
438,0.012232780456543,0.000216763270142783
439,0.0118885040283203,0.000189630170380923
440,0.0112566947937012,0.000180292375438798
441,0.0104012489318848,0.000193954942846868
442,0.0101585388183594,0.000158723039408619
443,0.0098419189453125,0.000219013128765159
444,0.00899124145507813,0.00021257312803571
445,0.00859689712524414,0.000238925395158153
446,0.00830745697021484,0.000248424379809035
447,0.00780391693115234,0.000204375765866757
448,0.00722980499267578,0.000183576732402268
449,0.00721597671508789,0.000239434936948547
450,0.00672578811645508,0.00020895263255894
451,0.00642299652099609,0.000180992210242478
452,0.00606155395507813,0.00020900920916447
453,0.00575780868530273,0.000168924232329544
454,0.00544643402099609,0.000165744645364643
455,0.00516271591186523,0.000200089871737788
456,0.00472736358642578,0.000188277628772782
457,0.00452613830566406,0.000176081442473189
458,0.0044560432434082,0.000180262105571147
459,0.0040898323059082,0.000170859477166201
460,0.00417041778564453,0.000216998107571452
461,0.00382566452026367,0.000191994323517277
462,0.00370550155639648,0.000197615494090737
463,0.00329208374023437,0.000199921620051742
464,0.00320291519165039,0.000195821642358934
465,0.00302934646606445,0.000195691552993099
466,0.00292205810546875,0.000182194230494021
467,0.00285768508911133,0.000217462839384997
468,0.00261783599853516,0.000173353753740671
469,0.00247049331665039,0.000211324416115257
470,0.00245857238769531,0.00017933134877843
471,0.00241947174072266,0.000188996018258137
472,0.00192070007324219,0.000178930244765413
473,0.00201559066772461,0.000191823712414105
474,0.00207328796386719,0.000156178546564015
475,0.00194263458251953,0.000162891370027769
476,0.00172519683837891,0.000174826997193743
477,0.00173091888427734,0.000171467883943943
478,0.0016474723815918,0.000147828747861165
479,0.00152015686035156,0.000185042310114058
480,0.00150823593139648,0.000198854244721312
481,0.00149250030517578,0.000171658727837361
482,0.0013275146484375,0.00017701387365255
483,0.00129175186157227,0.000196886980724896
484,0.00118541717529297,0.000203881205239301
485,0.000956535339355469,0.000200951647812896
486,0.00104236602783203,0.000180776004005246
487,0.0012669563293457,0.00015109945565291
488,0.00112533569335937,0.000183814385103191
489,0.0010833740234375,0.00020371162031778
490,0.00111913681030273,0.000186642615892798
491,0.000870227813720703,0.000157835260243908
492,0.000864982604980469,0.000215745497861102
493,0.00092315673828125,0.000208490742663878
494,0.000888824462890625,0.000193987764512499
495,0.000773429870605469,0.000198808502709637
496,0.000717639923095703,0.000218884357367068
497,0.000755786895751953,0.000182782325116316
498,0.000902652740478516,0.00019619748662467
499,0.000648975372314453,0.000218418486137958
500,0.000692367553710938,0.000186398810610823
501,0.000810623168945313,0.000161658345781291
502,0.000583171844482422,0.000204944588406909
503,0.000679492950439453,0.000185606681759453
504,0.000652790069580078,0.000174525005550424
505,0.000722408294677734,0.000205737413759656
506,0.000754833221435547,0.000194367154947136
507,0.000610828399658203,0.000187294449056511
508,0.000698089599609375,0.000179898469887567
509,0.000528335571289063,0.00020048947064511
510,0.000580310821533203,0.00018661824969785
511,0.000669956207275391,0.00018740124976707
512,0.000722885131835938,0.000183507359056373
513,0.000637054443359375,0.000208822012659597
514,0.00069427490234375,0.000204108584604888
515,0.000622272491455078,0.000176792802232242
516,0.000707626342773438,0.000164508128510281
517,0.000697135925292969,0.000180539389392282
518,0.000593662261962891,0.0001795036999463
519,0.000587940216064453,0.000203769652094568
520,0.000621318817138672,0.00018607649850665
521,0.00060272216796875,0.00016833634908462
522,0.000509262084960938,0.000188538300947296
523,0.000631332397460938,0.000198945697193366
524,0.000637054443359375,0.00019417052651547
525,0.000678539276123047,0.000188069798085576
526,0.000607490539550781,0.000182254123405071
527,0.000668525695800781,0.000187464330677881
528,0.000629425048828125,0.000160526363521175
529,0.000799179077148438,0.000184120899177372
530,0.000609397888183594,0.000209817019196768
531,0.000655174255371094,0.000196840781559438
532,0.000589370727539063,0.000204081847240242
533,0.000733852386474609,0.000198630008213537
534,0.000661373138427734,0.000194343757232452
535,0.000721454620361328,0.000187861737476253
536,0.000618934631347656,0.000195919152697292
537,0.000631809234619141,0.000197371419071602
538,0.000694751739501953,0.000212234857174796
539,0.000753402709960938,0.000196595744731524
540,0.000649929046630859,0.00021942800530438
541,0.000677585601806641,0.0002366957406233
542,0.000758647918701172,0.000198336746068606
543,0.000791072845458984,0.00018663286979656
544,0.000792503356933594,0.000190539259748147
545,0.000586986541748047,0.000193987764512499
546,0.000745773315429688,0.000221207219468052
547,0.000649929046630859,0.000209000506068168
548,0.000744342803955078,0.000189783585116341
549,0.000719547271728516,0.000200135320885844
550,0.000746726989746094,0.000207861625372325
551,0.000760078430175781,0.000173191036905699
552,0.000828266143798828,0.000200657246187342
553,0.000635623931884766,0.000244319373498625
554,0.000643253326416016,0.00025060412635634
555,0.000713825225830078,0.00020583906377749
556,0.000547409057617188,0.000199379523585275
557,0.000629425048828125,0.000211358843585223
558,0.000683307647705078,0.000184343049874531
559,0.000782012939453125,0.000199753226647736
560,0.000727653503417969,0.000191230130912694
561,0.000722408294677734,0.000187895623507897
562,0.000755786895751953,0.000185444907353742
563,0.000781059265136719,0.000208656443403673
564,0.00061798095703125,0.000210405713096149
565,0.000708103179931641,0.000209183195050891
566,0.000670909881591797,0.000201326950205908
567,0.000750541687011719,0.000187478884796973
568,0.000715255737304688,0.000208660802172506
569,0.000717639923095703,0.000213294969401731
570,0.000672817230224609,0.000231218333095834
571,0.000738620758056641,0.000217391728668606
572,0.000764846801757813,0.000203559766684811
573,0.000760078430175781,0.000225599919129447
574,0.000604152679443359,0.00022029670285005
575,0.000747203826904297,0.000188219652596266
576,0.000660896301269531,0.000202848118792388
577,0.000713825225830078,0.000209539414485175
578,0.000697612762451172,0.000206161360112055
579,0.000840663909912109,0.000189596594359902
580,0.000805854797363281,0.000212131984515115
581,0.000667572021484375,0.000225942332488877
582,0.000675678253173828,0.000199662144053676
583,0.000952243804931641,0.000198584214551092
584,0.000716686248779297,0.00020495346373283
585,0.000649929046630859,0.000209960015705214
586,0.000828742980957031,0.000214477092078085
587,0.000762939453125,0.000206870403144634
588,0.000606060028076172,0.00020447364485552
589,0.000741004943847656,0.000209157106394399
590,0.000650405883789063,0.000213597500499742
591,0.000772476196289063,0.000214192788712024
592,0.000716209411621094,0.000228416446566148
593,0.000634670257568359,0.000218510074947759
594,0.000700473785400391,0.00020153013522144
595,0.000711917877197266,0.000204019446429353
596,0.000726699829101563,0.000195431114478356
597,0.000644207000732422,0.000206646062719914
598,0.000730514526367188,0.000190911211506418
599,0.0005645751953125,0.000210245716949401
600,0.000699996948242188,0.000210807329374547
601,0.000667095184326172,0.00020740607610303
602,0.000643730163574219,0.000213196874310586
603,0.000609397888183594,0.000222114003617446
604,0.000699043273925781,0.000200021678652568
605,0.000627517700195313,0.000216704521021928
606,0.000661373138427734,0.000210932408156574
607,0.00067138671875,0.00020665926595692
608,0.000636577606201172,0.000188803430427755
609,0.000684261322021484,0.000181473973757114
610,0.000663280487060547,0.000186856901400678
611,0.000604152679443359,0.000194222043678708
612,0.000575542449951172,0.000194885860816113
613,0.000627994537353516,0.000224537144584322
614,0.000679492950439453,0.000201841288321336
615,0.000596046447753906,0.000198698678918514
616,0.000655651092529297,0.000196577238989991
617,0.000662803649902344,0.00021005529262985
618,0.000649452209472656,0.000222424984652445
619,0.000524997711181641,0.000210094257100102
620,0.000588417053222656,0.000201602329433042
621,0.000605106353759766,0.000201971919741135
622,0.000543594360351563,0.00021318834216954
623,0.000533103942871094,0.000224314254742951
624,0.000560283660888672,0.000206028970587017
625,0.000594139099121094,0.000226046967099775
626,0.000612735748291016,0.000196304076661996
627,0.000703811645507813,0.000178859069214175
628,0.000745296478271484,0.000187750354597042
629,0.000508308410644531,0.000198176184774959
630,0.000565528869628906,0.000232868443758507
631,0.000519752502441406,0.000205215113163952
632,0.000619888305664063,0.000200861108656323
633,0.000542640686035156,0.000206174594388987
634,0.000609874725341797,0.000218834490031055
635,0.000565052032470703,0.000222404538736561
636,0.0006103515625,0.000208490742663878
637,0.000567913055419922,0.0001905297129756
638,0.000513076782226563,0.000199593804831357
639,0.000601291656494141,0.000224460171298636
640,0.000592231750488281,0.00021321820316948
641,0.000536441802978516,0.000178630098575244
642,0.000604629516601563,0.000186379292410705
643,0.000524044036865234,0.000222208162224641
644,0.000602245330810547,0.000217550649943547
645,0.000570774078369141,0.000211526597260063
646,0.000559806823730469,0.00019167193060909
647,0.000464439392089844,0.000215770789922446
648,0.000615596771240234,0.000205383456656636
649,0.000586032867431641,0.000211672735580522
650,0.000630378723144531,0.000218709771946855
651,0.000445365905761719,0.000230082699504754
652,0.000646114349365234,0.000209998997853718
653,0.000569343566894531,0.000204820293462289
654,0.000596046447753906,0.000219407280109027
655,0.000610828399658203,0.000219577168964322
656,0.000231266021728516,0.000243143938038035
657,0.00131702423095703,0.000205480855641362
658,0.000819206237792969,0.000213077393245986
659,0.000515460968017578,0.000238952039910323
660,0.000604152679443359,0.000225793345788983
661,0.000599384307861328,0.000214065366311618
662,0.000573158264160156,0.000206513983922484
663,0.000544071197509766,0.000227474815227244
664,0.000567436218261719,0.000236411227341998
665,0.000513076782226563,0.000205794874286893
666,0.000492095947265625,0.000213810293694935
667,0.000673770904541016,0.000206742866876999
668,0.000562191009521484,0.000226207848915878
669,0.000590324401855469,0.000223802797605478
670,0.000566959381103516,0.000198607112702169
671,0.000576496124267578,0.000225825567458186
672,0.000586509704589844,0.000243472884880752
673,0.000521659851074219,0.000222804936687161
674,0.000511646270751953,0.000205635713494107
675,0.000617504119873047,0.000211698514223796
676,0.000576019287109375,0.000227802433467599
677,0.000475883483886719,0.000220840992317711
678,0.000553607940673828,0.000210591501841483
679,0.000545024871826172,0.000213695411686865
680,0.000499248504638672,0.000217098674420819
681,0.000537395477294922,0.000204904644682949
682,0.00057220458984375,0.000204740349723044
683,0.000546932220458984,0.000211694218001246
684,0.000518798828125,0.000211229711640139
685,0.000542640686035156,0.000232985582774161
686,0.000529289245605469,0.00021999098179412
687,0.000617027282714844,0.000219386552955789
688,0.000550746917724609,0.000232915306434231
689,0.000536441802978516,0.000232723891103982
690,0.000476360321044922,0.00020797972982077
691,0.000558853149414063,0.000196956259154206
692,0.000607490539550781,0.000224018076624246
693,0.000429630279541016,0.000228480145510201
694,0.000592708587646484,0.000217429378415514
695,0.000544071197509766,0.00020791412452084
696,0.000529289245605469,0.000218950829481076
697,0.000557422637939453,0.000226577443573439
698,0.000562667846679688,0.000207134021979578
699,0.000538349151611328,0.000190935029855357
700,0.000576019287109375,0.000205896495936769
701,0.000485420227050781,0.000226910365688236
702,0.000532150268554688,0.000214205526783144
703,0.000553131103515625,0.000209057069717808
704,0.000453472137451172,0.000195356639702355
705,0.000481128692626953,0.000199365838239355
706,0.000448703765869141,0.000209721634024101
707,0.000453948974609375,0.000209187542843982
708,0.000524044036865234,0.000206764861501025
709,0.0004730224609375,0.000230812828176969
710,0.000545024871826172,0.000213320552006849
711,0.000501632690429688,0.000218001688402734
712,0.000420570373535156,0.000219386552955789
713,0.000457763671875,0.000218326858906364
714,0.000501632690429688,0.000231245865877514
715,0.000454425811767578,0.000229623704875136
716,0.000443935394287109,0.000219726231362835
717,0.000439643859863281,0.000202115966773614
718,0.000538349151611328,0.000227142720425231
719,0.000554084777832031,0.000222988552027519
720,0.000461578369140625,0.000202232929438618
721,0.000475406646728516,0.000213627304307202
722,0.000508308410644531,0.00022906058007715
723,0.0004730224609375,0.000221092067341838
724,0.000505447387695313,0.000220086048687832
725,0.000490665435791016,0.000209760660473719
726,0.000519275665283203,0.000219407280109027
727,0.000508785247802734,0.000218639066786302
728,0.000437736511230469,0.000209109268737277
729,0.000492572784423828,0.000226501163656188
730,0.000484466552734375,0.000231552438248699
731,0.000536918640136719,0.000217529745882815
732,0.000522613525390625,0.000228949377902586
733,0.000496864318847656,0.000212560292140079
734,0.000522613525390625,0.000213171276862955
735,0.000518321990966797,0.000220292574312435
736,0.000615596771240234,0.000213606016297632
737,0.000540733337402344,0.000206531599309041
738,0.000530719757080078,0.000213699667677379
739,0.000477313995361328,0.000217270368437166
740,0.000507354736328125,0.000215867715372257
741,0.000506877899169922,0.000214290427906883
742,0.000510692596435547,0.0002228865621796
743,0.000418186187744141,0.000231862527851738
744,0.000482559204101563,0.000217270368437166
745,0.000451564788818359,0.000219544030242587
746,0.000422000885009766,0.000221342857565145
747,0.000449657440185547,0.000235524735114031
748,0.000435829162597656,0.000229730621717
749,0.000477313995361328,0.00022419664178614
750,0.000481128692626953,0.000236465080434722
751,0.000495433807373047,0.000232833290561889
752,0.000537872314453125,0.000240420519666015
753,0.000512599945068359,0.000250226403980186
754,0.000514984130859375,0.00023189390620934
755,0.000522136688232422,0.000234669776904379
756,0.000449657440185547,0.000212449015225261
757,0.000463008880615234,0.000236030058387484
758,0.00051116943359375,0.000233761118819878
759,0.000480175018310547,0.000217889016319196
760,0.000502586364746094,0.000213081661580503
761,0.000562191009521484,0.000230568393991959
762,0.000504493713378906,0.000237325067979331
763,0.000422477722167969,0.000216179267636608
764,0.000544071197509766,0.000232019377203585
765,0.000490665435791016,0.000234727904249589
766,0.000567913055419922,0.00023983724045346
767,0.000527381896972656,0.000223985594936813
768,0.000533103942871094,0.000217031635032361
769,0.000527381896972656,0.000235972251803778
770,0.000463962554931641,0.000208665160850289
771,0.000461101531982422,0.000206156948497617
772,0.000471591949462891,0.000197071669082868
773,0.000481605529785156,0.000222114003617446
774,0.000494956970214844,0.000216074063739292
775,0.000528335571289063,0.000226725915025623
776,0.000485897064208984,0.000230769479714307
777,0.000483989715576172,0.00023431682858179
778,0.000512123107910156,0.00022770259980657
779,0.000435352325439453,0.000217554830514662
780,0.000433444976806641,0.000207256929352761
781,0.000454902648925781,0.000230978265657183
782,0.000440120697021484,0.000234413845349879
783,0.000537872314453125,0.000223432683778171
784,0.000463008880615234,0.000225103504669689
785,0.000412464141845703,0.000224464223182263
786,0.0004730224609375,0.00023215653345763
787,0.000409126281738281,0.000218614106563972
788,0.000457763671875,0.000237164057851195
789,0.000461578369140625,0.00023505702102406
790,0.000500679016113281,0.00022627216961351
791,0.000369071960449219,0.000221716459990743
792,0.000501155853271484,0.000231135715072643
793,0.000456333160400391,0.000233118269168969
794,0.000503063201904297,0.000218281030867275
795,0.000463962554931641,0.000233270375331019
796,0.000473499298095703,0.000219804862429341
797,0.000483989715576172,0.000223843432135218
798,0.000474929809570313,0.000235710017483145
799,0.000499248504638672,0.000219784172770843
800,0.000472068786621094,0.000233570396649805
801,0.000524520874023438,0.000232019377203585
802,0.000504493713378906,0.000243566254656191
803,0.000531196594238281,0.000235551764536713
804,0.000452995300292969,0.000225386151022695
805,0.000462532043457031,0.000244572376907536
806,0.000544548034667969,0.00024467647874183
807,0.000479221343994141,0.000246188397220803
808,0.000481605529785156,0.00023556334762558
809,0.000494003295898438,0.000236334273065248
810,0.00049591064453125,0.000237937441769809
811,0.00046539306640625,0.000232485378329394
812,0.000452041625976563,0.000227498803291556
813,0.00049591064453125,0.000238189587296748
814,0.000444412231445313,0.00024005708340671
815,0.000417709350585938,0.000236772577418254
816,0.000536918640136719,0.000247257424263006
817,0.000467300415039063,0.000239180301742257
818,0.000506877899169922,0.000251784468727482
819,0.000488758087158203,0.000233644368624229
820,0.000414371490478516,0.000239016736228166
821,0.000470638275146484,0.000246439481831928
822,0.0004730224609375,0.000246572305468633
823,0.00042724609375,0.000234355640108497
824,0.000409603118896484,0.0002221754159308
825,0.000514984130859375,0.00022807375994007
826,0.000457763671875,0.00023954506825284
827,0.000421524047851563,0.000241206086308812
828,0.000452041625976563,0.000241586618011372
829,0.000369548797607422,0.000226223930804773
830,0.000508308410644531,0.000230161743996403
831,0.000374794006347656,0.000226167639190741
832,0.000486850738525391,0.000233480820271957
833,0.00052642822265625,0.000235362493391758
834,0.000510215759277344,0.000219912417275773
835,0.000400066375732422,0.000215876141615615
836,0.000393867492675781,0.000239871367222023
837,0.000439643859863281,0.00026251520440298
838,0.000507831573486328,0.000237516604391296
839,0.000481605529785156,0.000240632270660182
840,0.000441551208496094,0.000248929092356022
841,0.000396728515625,0.000255178726911423
842,0.000382900238037109,0.000256181844945996
843,0.000405311584472656,0.000230544725317258
844,0.000446796417236328,0.000233978896652069
845,0.000444889068603516,0.00022356290354446
846,0.000429153442382813,0.000225410361361776
847,0.000449657440185547,0.000236745687376684
848,0.000474452972412109,0.00022251901166849
849,0.000489234924316406,0.0002321878720827
850,0.000448703765869141,0.000240568008810845
851,0.000418186187744141,0.000237639106677509
852,0.000468254089355469,0.00023095463898692
853,0.000432491302490234,0.000242338383016149
854,0.000403881072998047,0.00023762762477093
855,0.000430583953857422,0.000255043253333233
856,0.000504970550537109,0.000239685507138393
857,0.0004425048828125,0.000249155514416625
858,0.000391006469726562,0.000257661551750774
859,0.000444889068603516,0.000244795398058082
860,0.000454902648925781,0.000241356863686443
861,0.000407695770263672,0.00025318930577685
862,0.000402927398681641,0.000258176388741369
863,0.000413417816162109,0.00022806977218342
864,0.00043487548828125,0.00023232492886347
865,0.000401496887207031,0.000254450601944289
866,0.000387668609619141,0.000220036453693882
867,0.000372409820556641,0.000200312474031993
868,0.000452995300292969,0.00021335892016304
869,0.000388145446777344,0.000208943927106064
870,0.000418186187744141,0.000205472003096041
871,0.000380039215087891,0.000249935459862285
872,0.000451564788818359,0.000241782301774048
873,0.000395298004150391,0.000226878298084106
874,0.000408172607421875,0.000224387224881786
875,0.000350475311279297,0.000234343997325413
876,0.000401020050048828,0.000244047474972191
877,0.000425815582275391,0.000242375910058976
878,0.000334739685058594,0.00025708908760825
879,0.000425338745117188,0.000260085712677693
880,0.000339508056640625,0.000242896935559117
881,0.000410556793212891,0.000224897352930167
882,0.000421047210693359,0.000241985344347438
883,0.000341415405273437,0.000239647558798652
884,0.000415802001953125,0.000219220665179361
885,0.000393867492675781,0.000258528425214499
886,0.000373363494873047,0.000248336499004513
887,0.000394821166992187,0.000234541846036126
888,0.000422477722167969,0.00022399777612157
889,0.000337600708007812,0.000243782734812476
890,0.000450611114501953,0.000258535461054564
891,0.000407218933105469,0.000264936149107719
892,0.000378608703613281,0.00023910423867729
893,0.000369071960449219,0.000234634893585159
894,0.000514984130859375,0.000235087972997203
895,0.000283241271972656,0.000252405001673481
896,0.000420570373535156,0.000249971846395964
897,0.00038909912109375,0.00024753681958013
898,0.000325202941894531,0.000264702610158242
899,0.000462055206298828,0.000239400747966507
900,0.000417709350585938,0.00026684482230541
901,0.000371456146240234,0.000271038200354863
902,0.000417232513427734,0.000249469243500913
903,0.000417709350585938,0.000262501345872977
904,0.000417709350585938,0.000250168242225904
905,0.000324249267578125,0.000239583032826394
906,0.000480175018310547,0.000243282299423067
907,0.000274658203125,0.000256252838946236
908,0.000351905822753906,0.000267811038200096
909,0.000378608703613281,0.000246793519340216
910,0.000376701354980469,0.000241966551266762
911,0.000429153442382813,0.00023477826964106
912,0.000385761260986328,0.000257336604907834
913,0.000382900238037109,0.000280256957888845
914,0.000488758087158203,0.000230070840488716
915,0.000414371490478516,0.000232414950740476
916,0.000416755676269531,0.000242612196950896
917,0.000449657440185547,0.000251415754822999
918,0.000326633453369141,0.000246432100641905
919,0.000460147857666016,0.000234634893585159
920,0.000428199768066406,0.000237818917507526
921,0.00031280517578125,0.000238883518828823
922,0.000445365905761719,0.000246719803421328
923,0.000393390655517578,0.000259749792986102
924,0.000402450561523438,0.000237849510068194
925,0.000501155853271484,0.000236668841851621
926,0.000362873077392578,0.000214201280843604
927,0.000261783599853516,0.000272664143043647
928,0.000398159027099609,0.000275590427184352
929,0.000382900238037109,0.000244966243435658
930,0.000310420989990234,0.000220564892033691
931,0.000393867492675781,0.000245537338893953
932,0.000429630279541016,0.000254657829675855
933,0.000389575958251953,0.000272837538382662
934,0.000233650207519531,0.000284226946981243
935,0.000254631042480469,0.000254736389198903
936,0.000266551971435547,0.000246387808858189
937,0.000264644622802734,0.000236480464780104
938,0.000355720520019531,0.000274167682472112
939,0.000327587127685547,0.000272744185359489
940,0.000351905822753906,0.000283303880033538
941,0.000264167785644531,0.000240038139358558
942,0.000363349914550781,0.000270446970618232
943,0.000367164611816406,0.000289483750530764
944,0.000334739685058594,0.000267987573649969
945,0.000257968902587891,0.000251271013443805
946,0.000376701354980469,0.000259280177368513
947,0.000394344329833984,0.000244289591164938
948,0.000272274017333984,0.000237424686197299
949,0.000330924987792969,0.000258837821253775
950,0.000482559204101563,0.000230039213457089
951,0.000487804412841797,0.000224597894333704
952,0.000347614288330078,0.000286762746805615
953,0.000273227691650391,0.000257534447466915
954,0.000364780426025391,0.000257993139936995
955,0.000304222106933594,0.000261104811991083
956,0.000338077545166016,0.000280892300300676
957,0.000375270843505859,0.000263020541014682
958,0.000321865081787109,0.000291044152224922
959,0.000274181365966797,0.000285822413557879
960,0.000407218933105469,0.000276506351843569
961,0.000287055969238281,0.000251480861264794
962,0.000409126281738281,0.000283567003674878
963,0.000284671783447266,0.000287282417174603
964,0.000301837921142578,0.000274227387256256
965,0.000257968902587891,0.00025060412635634
966,0.000421047210693359,0.000291368964445928
967,0.0003509521484375,0.000271795507057796
968,0.000216484069824219,0.000308430718033469
969,0.000496387481689453,0.000322178229127824
970,0.000422000885009766,0.000309731337037453
971,0.000408172607421875,0.000263814655693105
972,0.000291824340820312,0.000248248587089904
973,0.000405311584472656,0.000262556775604022
974,0.000174999237060547,0.000259945798894542
975,0.000364303588867187,0.000245233414648235
976,0.000262260437011719,0.000298851768798683
977,0.000594615936279297,0.000269807257000076
978,0.0002899169921875,0.000320565106279395
979,0.000365257263183594,0.000330213777400277
980,0.000162124633789062,0.000283149742981849
981,0.000371456146240234,0.000249724313416147
982,0.000397205352783203,0.000264578888436056
983,0.000261306762695312,0.000310529010336833
984,0.000436305999755859,0.000258112971185624
985,0.000338554382324219,0.000276032295457848
986,0.000281810760498047,0.000242507208977467
987,0.000355720520019531,0.000260225551234319
988,0.000342369079589844,0.000286629508949362
989,0.0003662109375,0.000245840887409346
990,0.000624179840087891,0.000369060871046381
991,0.000193119049072266,0.000267715932433081
992,0.00031280517578125,0.000310663708490928
993,0.000165939331054687,0.000309308206598043
994,0.000220298767089844,0.000299247135886983
995,0.000498771667480469,0.000261264992598438
996,0.000252723693847656,0.000246461624075657
997,0.000514984130859375,0.000359513714701337
998,0.000783443450927734,0.000399151154173171
999,0.000451087951660156,0.00034003270790762
1000,0.000433921813964844,0.000277478257658666
1001,0.000557422637939453,0.000267797453729865
1002,0.000440120697021484,0.000300533026211207
1003,0.0003204345703125,0.000328147123575855
1004,0.000392913818359375,0.000358561251451717
1005,0.000234603881835937,0.000305235380075146
1006,0.000313758850097656,0.000346340060096183
1007,0.000439167022705078,0.000370880005791816
1008,0.000570297241210938,0.000298291276546682
1009,0.0002899169921875,0.000318333001229121
1010,0.000624179840087891,0.000291587384330222
1011,0.000607967376708984,0.000326914214154009
1012,0.000190258026123047,0.000425616631160396
1013,0.000682353973388672,0.000377529778566194
1014,0.000698566436767578,0.000492450674972361
1015,0.000502586364746094,0.000527477600629993
1016,0.000364303588867187,0.000385803401894476
1017,0.000580787658691406,0.000373217004658051
1018,0.000824451446533203,0.000531408004194223
1019,-0.0000925064086914063,0.00038408337718205
1020,0.000969886779785156,0.000289659636863606
1021,0.00104331970214844,0.000356444626637674
1022,0.000195026397705078,0.000370889814707484
1023,0.00103950500488281,0.000502874917686853
1024,0.000596046447753906,0.000440783275739382
1025,0.000349998474121094,0.00047365269668369
1026,0.000523567199707031,0.000421778571844024
1027,0.000536441802978516,0.000508414860327155
1028,0.000782489776611328,0.000537073611022444
1029,0.000410079956054688,0.000316723266633108
1030,0.00110912322998047,0.000381689008629794
1031,0.000716209411621094,0.000613787042342203
1032,0.000467777252197266,0.000533389627411145
1033,0.000464916229248047,0.000649977848014797
1034,0.000545024871826172,0.000736937905337113
1035,0.000706195831298828,0.000437178286982977
1036,0.000943660736083984,0.000492731319960557
1037,0.000781059265136719,0.000609623952135463
1038,0.000434398651123047,0.000523044937164386
1039,0.000468730926513672,0.000486714113214918
1040,0.000819683074951172,0.000664162786007681
1041,0.00117206573486328,0.000608225935763629
1042,0.000530242919921875,0.000486280394896773
1043,0.000815391540527344,0.00075531005859375
1044,0.0005950927734375,0.000651174521798405
1045,-0.000219345092773437,0.00067055173450026
1046,0.000454902648925781,0.000745517169642822
1047,0.00166893005371094,0.000713480972779744
1048,-0.0000524520874023438,0.000795508447127507
1049,0.000428676605224609,0.000833648827430558
1050,0.000629901885986328,0.000730770952522476
1051,0.00167655944824219,0.000916528154762692
1052,0.00121355056762695,0.000910474822770595
1053,0.00199222564697266,0.00104310872178093
1054,0.000504493713378906,0.000831428999378984
1055,0.000108242034912109,0.000941202630384159
1056,0.00166893005371094,0.00108176097868445
1057,0.0011134147644043,0.00086805948779752
1058,0.000415802001953125,0.000964718762306109
1059,0.00158977508544922,0.00116327627884191
1060,0.00225496292114258,0.000821551539540954
1061,0.000230789184570312,0.000826795482430668
1062,0.00156307220458984,0.00107257457097107
1063,0.00232124328613281,0.00116512620253082
1064,0.000726699829101563,0.00123197595687524
1065,0.00243282318115234,0.00123669167155818
1066,-0.000398159027099609,0.0011480400977595
1067,-0.000349998474121094,0.00116782083180706
1068,-0.000382423400878906,0.00149279003560822
1069,0.00154304504394531,0.00121700202626913
1070,0.000932216644287109,0.00115042061272802
1071,0.0000157356262207031,0.00113887721380963
1072,-0.000898361206054688,0.00142042034010451
1073,0.000701427459716797,0.00155265208092224
1074,0.000622272491455078,0.00155583539834632
1075,0.00159454345703125,0.00128563787253597
1076,0.00364494323730469,0.00226514655027005
1077,-0.000966072082519531,0.00163930817391147
1078,0.00151252746582031,0.00158460155133243
1079,0.000432014465332031,0.00170901843445762
1080,0.00139617919921875,0.0023705205303026
1081,0.00500965118408203,0.0025930066192427
1082,-0.000545501708984375,0.00220820564487164
1083,0.00380754470825195,0.00165563135019152
1084,0.00130605697631836,0.00158129209746989
1085,0.00123739242553711,0.00228321661508718
1086,0.00188922882080078,0.00230230806657667
1087,-0.000664234161376953,0.00209523788293685
1088,0.00120353698730469,0.00256597306530832
1089,0.00195693969726562,0.00300129171219342
1090,-0.000360012054443359,0.00182920998793188
1091,-0.00203132629394531,0.00170079038001621
1092,0.00359201431274414,0.00252881918266158
1093,0.00391769409179687,0.00202223574914909
1094,0.000916481018066406,0.00238662289990444
1095,0.00452613830566406,0.00245491107381444
1096,0.00387907028198242,0.00325316523967704
1097,-0.000288486480712891,0.00262663998917847
1098,-0.000629901885986328,0.00224542815256346
1099,0.000782012939453125,0.00271357733189922
1100,-0.000761032104492188,0.00205942783432654
