Wavelength (nm),Absorbance (AU),Std.Dev.
190,1.02887773513794,0.600419978340682
191,1.75185632705688,0.667705997298306
192,1.21644306182861,0.334412417591008
193,0.861246585845947,0.395053027492829
194,1.44003438949585,0.70120179688941
195,1.1746711730957,0.843243482223551
196,1.61774301528931,1.73996144219132
197,2.06635761260986,1.64032735395256
198,1.72652292251587,0.769521335596031
199,1.17913436889648,0.307993631272299
200,2.1687216758728,0.51046482819124
201,1.61806201934814,0.258824068976671
202,2.06000185012817,0.190372086641058
203,1.86412334442139,0.0884800116601422
204,1.82726573944092,0.0193749852334243
205,1.8809609413147,0.0101380845989055
206,1.87226676940918,0.00469713016560545
207,1.87551641464233,0.00535259529227607
208,1.8824257850647,0.00354601913998936
209,1.89703369140625,0.00351197530129699
210,1.91237354278564,0.00351469239474804
211,1.92580556869507,0.00304327740162865
212,1.95120716094971,0.00279156616312331
213,1.96174430847168,0.00368334652262192
214,1.97706890106201,0.00445932726015816
215,1.983078956604,0.00633252614821236
216,1.9912281036377,0.0055453051105105
217,1.99151992797852,0.00422555515885522
218,1.97845983505249,0.00406548665373543
219,1.96387767791748,0.004772953121252
220,1.95344924926758,0.00411738567852534
221,1.9133415222168,0.00401349663641933
222,1.88278913497925,0.00320041960930454
223,1.83847904205322,0.0022828086792942
224,1.79947185516357,0.00334630497353263
225,1.75243234634399,0.00359984554730992
226,1.70067071914673,0.00214183616831731
227,1.64541244506836,0.00200512332653506
228,1.58994293212891,0.0019410775077077
229,1.53993320465088,0.00124178796616797
230,1.48726749420166,0.000880112747098897
231,1.43929815292358,0.000798028832846437
232,1.39430093765259,0.00100279387210985
233,1.34974908828735,0.00111483181503954
234,1.31003522872925,0.000928046149017451
235,1.27494525909424,0.000544112778127038
236,1.2426929473877,0.000418027121153453
237,1.21323156356812,0.000411960812882522
238,1.18743944168091,0.000333606126542289
239,1.16476392745972,0.000393200741789463
240,1.14414834976196,0.000429716800102534
241,1.12649583816528,0.000487789263820993
242,1.11404323577881,0.000535431864866161
243,1.10261964797974,0.00054284093745261
244,1.09418249130249,0.000498325629856704
245,1.08961820602417,0.000391847589672455
246,1.08724641799927,0.000408840524251982
247,1.08922433853149,0.000627862551468439
248,1.09273195266724,0.000538534744005762
249,1.10097551345825,0.000394917904709348
250,1.11338090896606,0.000505587720283525
251,1.12748146057129,0.00071197009422091
252,1.14363050460815,0.000709636229622518
253,1.16156148910522,0.000541848172136374
254,1.1803469657898,0.000484609207416655
255,1.20224475860596,0.000616637287971808
256,1.22161436080933,0.000790701262090528
257,1.24368953704834,0.000955016145859912
258,1.26506042480469,0.00132065678796996
259,1.2808256149292,0.0010590577973565
260,1.29240322113037,0.00132014983066701
261,1.30020332336426,0.00135665995668916
262,1.30374240875244,0.00155946018639934
263,1.30496406555176,0.00123988811284954
264,1.3036732673645,0.00176969064748283
265,1.29733848571777,0.00192418109734605
266,1.27953577041626,0.00125838762515804
267,1.24762487411499,0.00108950852635872
268,1.20831537246704,0.00105011624880565
269,1.16024971008301,0.00125653603302007
270,1.11319732666016,0.00105605813433827
271,1.07129764556885,0.000689162832154664
272,1.03167724609375,0.000667615616601086
273,0.985785007476807,0.000480682129890439
274,0.927331924438477,0.000468338572228653
275,0.859363555908203,0.000563607804701124
276,0.787573337554932,0.000545021325781526
277,0.718446731567383,0.000510671002512931
278,0.657589435577393,0.000377337003952641
279,0.605628967285156,0.000284546755965752
280,0.562587261199951,0.000261299801476192
281,0.527378082275391,0.000263476586430225
282,0.496957778930664,0.000295835860169462
283,0.472681045532227,0.000205502985336282
284,0.451780796051025,0.000173280287639222
285,0.433999538421631,0.000213869837849015
286,0.419163227081299,0.000243170120554456
287,0.406650066375732,0.000204398015207196
288,0.396360397338867,0.000187643752585683
289,0.387951374053955,0.000200870164408391
290,0.381185054779053,0.000207322742615924
291,0.37536096572876,0.000229159822133743
292,0.371132850646973,0.000258204569322006
293,0.36782169342041,0.000257145683995861
294,0.36539363861084,0.000230469758478076
295,0.36375617980957,0.000205090982170339
296,0.362810611724854,0.00017968600922982
297,0.363016605377197,0.000233453551073958
298,0.363520622253418,0.000244669044365433
299,0.364369869232178,0.000187299304955425
300,0.365989685058594,0.000223733701967715
301,0.367869853973389,0.000279431456956101
302,0.369965076446533,0.000258563602500283
303,0.372883796691895,0.000220474156832396
304,0.376175880432129,0.000195882011625357
305,0.379255771636963,0.000176236330152286
306,0.383520126342773,0.000215581027135035
307,0.387146472930908,0.000273895529319188
308,0.391177654266357,0.000320582128791268
309,0.395234107971191,0.000280237485909164
310,0.399748802185059,0.000293805992339626
311,0.404242992401123,0.000264489497866298
312,0.408641338348389,0.000273010823594404
313,0.412806987762451,0.000241974068674182
314,0.417600631713867,0.000210664908012018
315,0.421422481536865,0.000201697045120406
316,0.4253830909729,0.000248468308555329
317,0.429982662200928,0.00033234968412941
318,0.433860778808594,0.000241861283029408
319,0.437479019165039,0.000205130889610088
320,0.440754890441895,0.000186198652067044
321,0.443976402282715,0.000241635553808661
322,0.446561813354492,0.000297160999433871
323,0.448812961578369,0.000243599859014484
324,0.451506614685059,0.000227842354683661
325,0.453424453735352,0.000284194946289062
326,0.454461574554443,0.000279997220151962
327,0.455605030059814,0.00034687535378829
328,0.456361770629883,0.000321805383302817
329,0.456750869750977,0.000292204316536294
330,0.456332206726074,0.000267008371933496
331,0.455620765686035,0.000268225034046127
332,0.45464038848877,0.000261264992598438
333,0.453581809997559,0.00025045165320252
334,0.451588153839111,0.000209161454729789
335,0.449117660522461,0.000234782143454424
336,0.44663143157959,0.000210492146864366
337,0.444007396697998,0.000211272764391466
338,0.440700531005859,0.000181834458748206
339,0.436587810516357,0.000258823765821044
340,0.43211030960083,0.000240654947215919
341,0.428308010101318,0.000227246802324404
342,0.422637462615967,0.000252872998740971
343,0.417803764343262,0.000219523316001149
344,0.412677764892578,0.000203992697381349
345,0.406662464141846,0.000225728888652132
346,0.400556564331055,0.000242510959330593
347,0.394211769104004,0.000206148124985511
348,0.38739538192749,0.000218376842162263
349,0.380623817443848,0.000189222058490538
350,0.373507976531982,0.000119586348262155
351,0.366293430328369,0.000154936126060369
352,0.358438014984131,0.000238780700338501
353,0.350751876831055,0.000205958328044023
354,0.342977046966553,0.000192051160203992
355,0.335607528686523,0.000242428438159731
356,0.326864719390869,0.000211277069184082
357,0.31840181350708,0.000273862321408044
358,0.310292720794678,0.000323963038950107
359,0.301582813262939,0.000274883284001219
360,0.293537139892578,0.000259132809233603
361,0.284905910491943,0.000317841207986205
362,0.276505470275879,0.000317400234917972
363,0.268364906311035,0.000251147917684691
364,0.26011323928833,0.000369100298520565
365,0.253611087799072,0.000369100298520565
366,0.246675968170166,0.000287529247888209
367,0.240339756011963,0.000242000377761198
368,0.233785152435303,0.000219224813903639
369,0.226598262786865,0.000186881236479429
370,0.220131397247314,0.000200956173699943
371,0.212650775909424,0.000257223483695748
372,0.206058979034424,0.000234126559099677
373,0.199315071105957,0.000219299477519553
374,0.192860126495361,0.000234611635157546
375,0.186405658721924,0.00020846456734926
376,0.180124759674072,0.000253863732280981
377,0.173773765563965,0.000288514459057194
378,0.167585372924805,0.000272029643449115
379,0.161441326141357,0.000220762730299306
380,0.15565013885498,0.000264523882429549
381,0.150341033935547,0.000283143318783757
382,0.145407676696777,0.000281261176062764
383,0.139779567718506,0.000275445181518751
384,0.134903430938721,0.000239913071124525
385,0.129868030548096,0.000238094109044106
386,0.124628067016602,0.000226481085723708
387,0.119826316833496,0.000191553267391415
388,0.115153312683105,0.00027310408547474
389,0.111059188842773,0.000237455329548769
390,0.106884479522705,0.00019357004603926
391,0.102473735809326,0.000243872256598276
392,0.098358154296875,0.000196039812584375
393,0.0944194793701172,0.000179827677558929
394,0.0908660888671875,0.000230781302829806
395,0.087181568145752,0.000185228988362194
396,0.0835151672363281,0.000178074260554452
397,0.0799098014831543,0.000199379523585275
398,0.0767297744750977,0.000169222782686086
399,0.0734944343566895,0.000163437631502267
400,0.0710225105285645,0.000219920688546759
401,0.0678677558898926,0.000200616448834226
402,0.06500244140625,0.000202210441872588
403,0.0624470710754395,0.000207046186328957
404,0.0592889785766602,0.000230761597300775
405,0.0567803382873535,0.000195519516429741
406,0.0547537803649902,0.000236776418603473
407,0.0524616241455078,0.000277563465171087
408,0.0500421524047852,0.000192221569430246
409,0.0478324890136719,0.000204922398410373
410,0.0460219383239746,0.000250974032652755
411,0.0435442924499512,0.000187532240236594
412,0.0418457984924316,0.000234751151157615
413,0.0398778915405273,0.000223489664262054
414,0.0381646156311035,0.000152572988736139
415,0.0363864898681641,0.000138604677358124
416,0.035189151763916,0.000210815957879938
417,0.0330047607421875,0.000217278740284523
418,0.0317974090576172,0.000290399701665124
419,0.0306415557861328,0.00025389955585165
420,0.028892993927002,0.00021459155561244
421,0.0276317596435547,0.000209439560414236
422,0.0262460708618164,0.000185248627760899
423,0.0250802040100098,0.000219668274671752
424,0.0240492820739746,0.000285567737918288
425,0.023129940032959,0.000242030441787373
426,0.0219578742980957,0.000201150690509563
427,0.0209159851074219,0.000188485230298435
428,0.0197710990905762,0.000150891651075146
429,0.0188007354736328,0.000177090926663491
430,0.0177526473999023,0.000225188335825929
431,0.0171980857849121,0.000248746343794267
432,0.0166330337524414,0.000223070110331708
433,0.0155525207519531,0.000180085429937625
434,0.0148138999938965,0.000159309289286512
435,0.0141711235046387,0.000206015726955336
436,0.0133223533630371,0.000194745806280729
437,0.0127897262573242,0.000205042195862596
438,0.0120377540588379,0.00019652633921561
439,0.0115385055541992,0.000178619915289965
440,0.0110607147216797,0.000171965753067716
441,0.0103030204772949,0.000199233498097528
442,0.00989151000976563,0.000182568238832975
443,0.00942754745483398,0.000217993344319581
444,0.00891494750976563,0.00020275394082517
445,0.00857114791870117,0.000206187827816469
446,0.0082402229309082,0.000247544167830011
447,0.00780963897705078,0.00020434016188306
448,0.00734853744506836,0.000199976203676727
449,0.00697231292724609,0.000233165081633547
450,0.00645828247070313,0.000216141400132571
451,0.00632572174072266,0.000184160412220196
452,0.00607204437255859,0.000195454382026267
453,0.00579452514648438,0.000176525090205738
454,0.00540256500244141,0.000162516848786475
455,0.00524520874023438,0.000201818757116872
456,0.00483417510986328,0.000171335228394877
457,0.00467824935913086,0.000169855794512995
458,0.00447797775268555,0.00018631584413911
459,0.00404787063598633,0.000161787692724215
460,0.00417232513427734,0.000186047169717989
461,0.00379610061645508,0.000188016595194441
462,0.00375986099243164,0.000197279236814894
463,0.00340366363525391,0.00019197537421566
464,0.00312995910644531,0.000198277124194488
465,0.00318574905395508,0.00018059479506779
466,0.00297880172729492,0.000179300916668793
467,0.00307035446166992,0.000222711030386661
468,0.00265884399414062,0.000193104331315199
469,0.00261449813842773,0.000213644333187605
470,0.00254392623901367,0.0001820993597645
471,0.0024418830871582,0.000198359672786835
472,0.00216913223266602,0.000182259113592584
473,0.00211238861083984,0.000194362475629532
474,0.00213193893432617,0.000165368336427831
475,0.00200557708740234,0.000162980680634179
476,0.00198745727539062,0.000174086709580248
477,0.00183725357055664,0.000185533165425219
478,0.0016016960144043,0.000142493751501884
479,0.00165367126464844,0.00017847728828872
480,0.00164270401000977,0.000203707155650192
481,0.00157308578491211,0.000181383740566606
482,0.00140762329101562,0.000200548434802674
483,0.00146198272705078,0.000202776368118068
484,0.00136518478393555,0.000195440421829926
485,0.00104808807373047,0.000203210967812513
486,0.00122547149658203,0.000178538428098092
487,0.00163984298706055,0.000141882894420159
488,0.00132179260253906,0.000170248896180861
489,0.00129795074462891,0.000208062800170977
490,0.00128412246704102,0.000191800004424691
491,0.00115251541137695,0.000166732165626166
492,0.001068115234375,0.000223936863571757
493,0.000977039337158203,0.000215930904182544
494,0.000971317291259766,0.000204295648177732
495,0.000975131988525391,0.000198185363210217
496,0.000894069671630859,0.000216019337464416
497,0.00098419189453125,0.000180302464265388
498,0.00105047225952148,0.000198024679173182
499,0.000870227813720703,0.000223888121599859
500,0.000915050506591797,0.000182463593774484
501,0.000791072845458984,0.000161807366890192
502,0.000829696655273438,0.000210686493194817
503,0.00101137161254883,0.000179696132100126
504,0.000780582427978516,0.000170467783514501
505,0.000796794891357422,0.000204023904263063
506,0.000867843627929688,0.000197551050751638
507,0.000777244567871094,0.000201724098577052
508,0.000847339630126953,0.000186886103114929
509,0.000732898712158203,0.000209448245266737
510,0.000883579254150391,0.000195607878429237
511,0.00089263916015625,0.000182807202598652
512,0.00091552734375,0.000163893308350773
513,0.000845909118652344,0.000203546362395804
514,0.000815868377685547,0.000204913521738934
515,0.000748157501220703,0.000176576604809866
516,0.000857830047607422,0.000157038049015431
517,0.000897884368896484,0.000175584883747715
518,0.000717639923095703,0.000175621138609575
519,0.000819683074951172,0.000201760164209768
520,0.000760555267333984,0.000185479234927425
521,0.00077056884765625,0.000166920250984755
522,0.000584602355957031,0.000177162812571329
523,0.000736713409423828,0.000200484934222382
524,0.000813484191894531,0.000199539116601771
525,0.000906944274902344,0.00018753708997838
526,0.000769615173339844,0.000179174060575689
527,0.000878810882568359,0.000183115402587997
528,0.000833034515380859,0.000152724919779545
529,0.000856876373291016,0.000177721501240481
530,0.000815391540527344,0.000203157253295213
531,0.000792026519775391,0.000197629300643747
532,0.000792503356933594,0.000202201446145917
533,0.000913619995117188,0.000202955697242763
534,0.000848770141601563,0.000208686952873664
535,0.000954627990722656,0.000193809522942558
536,0.000866413116455078,0.000197057823460265
537,0.000932216644287109,0.000200185303030764
538,0.000805377960205078,0.000207577024237256
539,0.000937938690185547,0.000196822298856903
540,0.000918388366699219,0.000219701394653045
541,0.000803470611572266,0.000226745971278926
542,0.000933647155761719,0.000194470071448339
543,0.000857830047607422,0.000189145138951388
544,0.000916957855224609,0.000192920559261971
545,0.000755786895751953,0.00020045771353014
546,0.000885963439941406,0.000221527684767082
547,0.000826835632324219,0.000210992764478741
548,0.000900745391845703,0.000196076923765509
549,0.00089263916015625,0.000199488972554315
550,0.000863552093505859,0.000210111572323035
551,0.000798225402832031,0.000172938786202231
552,0.000927925109863281,0.00020756826109111
553,0.000820159912109375,0.000244609561219993
554,0.000906467437744141,0.000254057119552712
555,0.000849723815917969,0.000210293296086696
556,0.000814437866210938,0.00019679457154834
557,0.000821590423583984,0.000215213677963293
558,0.000886917114257813,0.000189279727631459
559,0.000889778137207031,0.000201593306570485
560,0.000885009765625,0.000187478884796973
561,0.0008087158203125,0.000174493735205463
562,0.000998020172119141,0.000181433875657137
563,0.000873088836669922,0.000207116457829459
564,0.000811100006103516,0.000211315808371374
565,0.000863552093505859,0.000212680063705968
566,0.000840187072753906,0.000206716470239067
567,0.000974655151367188,0.000186676723222612
568,0.000893115997314453,0.000207809112960867
569,0.000858783721923828,0.000213184075970963
570,0.000780582427978516,0.000231355964238531
571,0.000906944274902344,0.000221174324978192
572,0.000865459442138672,0.000207160365412541
573,0.000882148742675781,0.000225212567430134
574,0.000830650329589844,0.000220672076444497
575,0.000850200653076172,0.000185949373680051
576,0.000852108001708984,0.000201087380113284
577,0.0009613037109375,0.000205476429416376
578,0.000871658325195313,0.000206536002920929
579,0.00113344192504883,0.000190601302114172
580,0.000917434692382813,0.000209074470839006
581,0.000874042510986328,0.000223008944399877
582,0.000844001770019531,0.000196225298303401
583,0.00115680694580078,0.000195305421820175
584,0.000845909118652344,0.000199452496237946
585,0.000751495361328125,0.000206311298873748
586,0.000927448272705078,0.000217897364397447
587,0.000963211059570313,0.000207572642710427
588,0.000782012939453125,0.000204775884126873
589,0.000905990600585938,0.000210664908012018
590,0.000895977020263672,0.00021212769707164
591,0.000888824462890625,0.000210405713096149
592,0.000868320465087891,0.000226886315410048
593,0.000854969024658203,0.0002214701995001
594,0.000857353210449219,0.000200271606445312
595,0.000799655914306641,0.00020289743266254
596,0.000899314880371094,0.000195803063455442
597,0.000833034515380859,0.000203894587515315
598,0.000800609588623047,0.000188596179168444
599,0.000753879547119141,0.000209725970654906
600,0.000841617584228516,0.000213529361890304
601,0.000714302062988281,0.000208255046394424
602,0.000850200653076172,0.000211685625294568
603,0.000708103179931641,0.000216780052681531
604,0.000764846801757813,0.000199320213633352
605,0.000804424285888672,0.000218626587031345
606,0.000853538513183594,0.000210483505084752
607,0.000795364379882813,0.000204513672758409
608,0.000829219818115234,0.000189740449759611
609,0.00084686279296875,0.000181007284761327
610,0.000760555267333984,0.000186471985665897
611,0.000743389129638672,0.000193649904579118
612,0.000792503356933594,0.000196419869792258
613,0.000750064849853516,0.000226312360766355
614,0.000852108001708984,0.000202313863980175
615,0.00077056884765625,0.000198419269856399
616,0.000765323638916016,0.000194512157958709
617,0.00075531005859375,0.00020776096492398
618,0.000814437866210938,0.000221568736540829
619,0.000704765319824219,0.000208965690058253
620,0.000730514526367188,0.000200811294720213
621,0.000677585601806641,0.000199027968489401
622,0.000623703002929688,0.000212131984515115
623,0.000713825225830078,0.000225644260717289
624,0.000660896301269531,0.000210928096329835
625,0.000735759735107422,0.000230461865813274
626,0.000719547271728516,0.000201629395598087
627,0.000835895538330078,0.000176148577188932
628,0.000925064086914063,0.00018551845866245
629,0.000833988189697266,0.000196586492078513
630,0.000668525695800781,0.000231458151537665
631,0.000676631927490234,0.000205064372895862
632,0.000699043273925781,0.000200326094708175
633,0.000695705413818359,0.00020337649826671
634,0.000729084014892578,0.000217767933222144
635,0.000767230987548828,0.000223587311307352
636,0.000752925872802734,0.000213465462190555
637,0.000753879547119141,0.000191073117728708
638,0.000665187835693359,0.000200897329215387
639,0.000738620758056641,0.00022364425239496
640,0.00067901611328125,0.000212333396705011
641,0.000693798065185547,0.000184865283149161
642,0.00069427490234375,0.000196331873241561
643,0.000733852386474609,0.000227302826683516
644,0.000765800476074219,0.000217776285941907
645,0.0006866455078125,0.000209526392739863
646,0.000675201416015625,0.000190367344591566
647,0.000654697418212891,0.000213277912626862
648,0.000696659088134766,0.000207300807183115
649,0.000727653503417969,0.000214684777073375
650,0.000767230987548828,0.000219804862429341
651,0.000606536865234375,0.000235783318198239
652,0.000721931457519531,0.00021193467234447
653,0.00078582763671875,0.000209322279637435
654,0.000720500946044922,0.000225491043718631
655,0.000795841217041016,0.000224998431305831
656,0.000361919403076172,0.00024440125620307
657,0.00160598754882812,0.000207388534993721
658,0.000958919525146484,0.000211737176304008
659,0.000751018524169922,0.000235829601647916
660,0.000688552856445313,0.00022787029537353
661,0.000775814056396484,0.000214438923989185
662,0.000730991363525391,0.00020931358955836
663,0.000673294067382813,0.000228149514073268
664,0.000731468200683594,0.000234565111383716
665,0.000654220581054688,0.000205847900537267
666,0.000719547271728516,0.00021747956793915
667,0.000804901123046875,0.00021824352804115
668,0.000705718994140625,0.000225567665227055
669,0.000761032104492188,0.000222796772493146
670,0.000720024108886719,0.000197159335446676
671,0.000735282897949219,0.000225487010286433
672,0.000714302062988281,0.000243248651194499
673,0.000691890716552734,0.000223481525082407
674,0.000621795654296875,0.000207927247236811
675,0.000792980194091797,0.0002128937739065
676,0.000701904296875,0.000230130129457743
677,0.000652790069580078,0.00022050303117368
678,0.000762939453125,0.000210085598953466
679,0.000669479370117188,0.000213495284430481
680,0.000575542449951172,0.000215922480076262
681,0.00064849853515625,0.000202016945472292
682,0.000654697418212891,0.000205856736917711
683,0.000613689422607422,0.000212371943205593
684,0.000682353973388672,0.000213081661580503
685,0.000721931457519531,0.000235783318198239
686,0.000710487365722656,0.000219746926476645
687,0.000807762145996094,0.000219775896362082
688,0.000662326812744141,0.000232411037470887
689,0.000741481781005859,0.000232493202300129
690,0.000668048858642578,0.000208285614660659
691,0.000689983367919922,0.000199347589650004
692,0.000783920288085938,0.000224524992661997
693,0.000655651092529297,0.000230623611453123
694,0.000713825225830078,0.000219374115723831
695,0.000703334808349609,0.000209096220204068
696,0.000666618347167969,0.000219962040236301
697,0.000706195831298828,0.000226770036441424
698,0.000683307647705078,0.000206742866876999
699,0.000641345977783203,0.000193908045115968
700,0.000658988952636719,0.00020960017193323
701,0.000673770904541016,0.000226440924517973
702,0.000751495361328125,0.000213835814648379
703,0.000676155090332031,0.000206522791803576
704,0.000599861145019531,0.000196331873241561
705,0.000675201416015625,0.000202637278889261
706,0.000655651092529297,0.000212200571829526
707,0.000590801239013672,0.000210755550923781
708,0.000712394714355469,0.000206117239718605
709,0.000615119934082031,0.000227186760894234
710,0.000681400299072266,0.000217634246107846
711,0.000591278076171875,0.000220672076444497
712,0.000563621520996094,0.000220399891156262
713,0.000662803649902344,0.000217914059594529
714,0.000675201416015625,0.0002319958565611
715,0.000619411468505859,0.000229655389128607
716,0.000623703002929688,0.000218468448430522
717,0.000615596771240234,0.000201390185289308
718,0.000668048858642578,0.000227938137075568
719,0.000691890716552734,0.000223123107242721
720,0.000573635101318359,0.000201534648117329
721,0.000640869140625,0.000212650127138805
722,0.000629425048828125,0.000227854329684572
723,0.000626087188720703,0.000219365823844111
724,0.000680446624755859,0.000219212367495254
725,0.000657081604003906,0.000209691275097258
726,0.000683307647705078,0.00021983382467993
727,0.000619888305664063,0.000218751352542289
728,0.00058746337890625,0.000208224473640634
729,0.000710487365722656,0.000225962458292373
730,0.000712871551513672,0.000231308785643559
731,0.0007171630859375,0.000217705277608952
732,0.000680923461914063,0.000229762291226624
733,0.0006561279296875,0.000213388757292795
734,0.000639915466308594,0.00021285104903222
735,0.000630378723144531,0.000221013894230251
736,0.000745773315429688,0.000215133368829247
737,0.000694751739501953,0.000208167683756804
738,0.000644683837890625,0.000213916610914167
739,0.000687599182128906,0.000216006706355045
740,0.000661373138427734,0.000216095108616158
741,0.000636577606201172,0.000213801786033483
742,0.000663280487060547,0.000222429073610092
743,0.000621795654296875,0.000230493434850895
744,0.000697612762451172,0.000217178256816708
745,0.000592708587646484,0.000219100318002915
746,0.000591278076171875,0.000220090181099535
747,0.000625133514404297,0.000234375043461716
748,0.000622272491455078,0.000232501026007577
749,0.000617027282714844,0.000222898803425347
750,0.000677585601806641,0.000235107315911163
751,0.000721454620361328,0.000231112104498489
752,0.000653743743896484,0.000240726742216489
753,0.000643253326416016,0.000251010268634615
754,0.000716686248779297,0.000232461904837202
755,0.000615596771240234,0.000236741845692845
756,0.000665187835693359,0.000214294672080103
757,0.000658512115478516,0.000237914506198214
758,0.000674247741699219,0.000234044967684375
759,0.000643730163574219,0.000218946675565188
760,0.000669479370117188,0.000214129086990022
761,0.000670433044433594,0.000229560323248873
762,0.000685691833496094,0.000236595815484383
763,0.000616073608398438,0.000217308039210366
764,0.000731945037841797,0.000231701647072809
765,0.000689983367919922,0.000235354764805768
766,0.000704288482666016,0.000242308357197298
767,0.000690460205078125,0.000226810139371414
768,0.000743865966796875,0.000216704521021928
769,0.000639438629150391,0.000235134393317473
770,0.000688076019287109,0.000207164755659019
771,0.000674247741699219,0.000205387884885238
772,0.000660896301269531,0.000197813295936038
773,0.000674247741699219,0.00022103446878222
774,0.000702381134033203,0.000215479751983595
775,0.000665187835693359,0.000224107376989926
776,0.000710964202880859,0.000230816768542614
777,0.000662326812744141,0.000233663831041161
778,0.000683307647705078,0.000229556361316178
779,0.000631332397460938,0.000221059155716879
780,0.000612258911132813,0.000208023455192812
781,0.000628471374511719,0.000231033385158184
782,0.000645637512207031,0.000234231420586031
783,0.000682353973388672,0.000222510836983538
784,0.00067138671875,0.000230832529332563
785,0.000619888305664063,0.000225813484871035
786,0.000632762908935547,0.000232450167202198
787,0.000593662261962891,0.000220317344377653
788,0.0006103515625,0.00023905478470677
789,0.000667095184326172,0.00023420035541075
790,0.000591754913330078,0.000225720830215821
791,0.000630378723144531,0.000224005896543408
792,0.000601768493652344,0.000231638834019246
793,0.000634193420410156,0.000234627141032132
794,0.00064849853515625,0.000218871891598222
795,0.000661849975585938,0.000234340116269173
796,0.000674724578857422,0.000221909173160537
797,0.000705718994140625,0.000224848819170023
798,0.000678062438964844,0.00023831556001846
799,0.000664710998535156,0.000220511280291027
800,0.000651359558105469,0.000236080145977261
801,0.000713825225830078,0.000234863478775496
802,0.000725269317626953,0.00024396547352735
803,0.000671863555908203,0.000234363401642557
804,0.000655651092529297,0.000224731485977045
805,0.000629901885986328,0.000244951392046185
806,0.000658988952636719,0.000244393813454498
807,0.000670909881591797,0.000247007171097794
808,0.000681877136230469,0.000235416586389394
809,0.000642776489257813,0.000238243038404577
810,0.000675678253173828,0.000237516604391296
811,0.000688076019287109,0.000230714297164182
812,0.000631332397460938,0.000229378003517259
813,0.000652790069580078,0.00023715638797561
814,0.000612735748291016,0.000237558721677421
815,0.000665187835693359,0.00023649969380452
816,0.000718593597412109,0.000246232724874235
817,0.000644683837890625,0.0002371333768604
818,0.000660896301269531,0.000250480702863721
819,0.000656604766845703,0.000233862255176874
820,0.000649929046630859,0.000237302073220974
821,0.000708580017089844,0.000247176487729513
822,0.000707149505615234,0.000246254885708714
823,0.000630855560302734,0.000233967235121307
824,0.000568389892578125,0.000222788607999951
825,0.000716686248779297,0.000228233213072381
826,0.000599384307861328,0.000240749409873805
827,0.000601291656494141,0.000240590691423497
828,0.000652313232421875,0.00024497366879276
829,0.000567436218261719,0.000229116160924824
830,0.000716209411621094,0.000231049131171844
831,0.000600814819335938,0.000227854329684572
832,0.000617504119873047,0.000238887326071192
833,0.000689983367919922,0.000238552056142747
834,0.000603675842285156,0.000220457655510853
835,0.000714302062988281,0.00021569068822063
836,0.000596046447753906,0.000238849250916574
837,0.000648975372314453,0.000261285878481565
838,0.000677585601806641,0.000236572749843043
839,0.000700473785400391,0.000237826566016621
840,0.000640392303466797,0.000248892553378275
841,0.000612258911132813,0.000256706735618019
842,0.000642776489257813,0.000255463699613895
843,0.000615119934082031,0.000230540780301895
844,0.000673294067382813,0.000233165081633547
845,0.00057220458984375,0.000224739579888051
846,0.000607013702392578,0.000222988552027519
847,0.000641822814941406,0.000237730941966269
848,0.000669956207275391,0.000224261539321033
849,0.000652313232421875,0.000231049131171844
850,0.000690937042236328,0.000240745632079134
851,0.0006561279296875,0.000236187990863093
852,0.000638484954833984,0.000229595977566592
853,0.000649929046630859,0.000241240019435097
854,0.000646591186523438,0.000239810694053676
855,0.000605106353759766,0.000254993323871724
856,0.000697135925292969,0.000240140419464559
857,0.000665187835693359,0.000247448623560853
858,0.000635147094726563,0.000257018324598016
859,0.000628948211669922,0.000240828729872621
860,0.000679492950439453,0.000238601614311761
861,0.000615119934082031,0.000261710196593705
862,0.000691413879394531,0.000260211570760393
863,0.0006256103515625,0.00022617568170765
864,0.000578403472900391,0.000226400756188045
865,0.000597000122070313,0.000250596867833613
866,0.00054931640625,0.000220387511110502
867,0.000600814819335938,0.000197987933082835
868,0.000609874725341797,0.000212483260482824
869,0.000457286834716797,0.000206918758406923
870,0.000555992126464844,0.000206540406438928
871,0.000501155853271484,0.000246668189170409
872,0.000639915466308594,0.000242244539975193
873,0.000573158264160156,0.000223371617129981
874,0.000564098358154297,0.000220556644921496
875,0.000577926635742188,0.000233582077992636
876,0.000516891479492188,0.000244103369254411
877,0.000558376312255859,0.000248936399507987
878,0.000538825988769531,0.000262452835255164
879,0.000509262084960938,0.000259525604968943
880,0.000504493713378906,0.000242788324701389
881,0.000641822814941406,0.00022879439909063
882,0.000616550445556641,0.000243667053827842
883,0.000527858734130859,0.000241533906834056
884,0.000616073608398438,0.000223879996906169
885,0.000564098358154297,0.000259427461790761
886,0.000545024871826172,0.000251647167866132
887,0.000608921051025391,0.000239050980131429
888,0.000491619110107422,0.000228631359375081
889,0.00055694580078125,0.000245203743333589
890,0.0005645751953125,0.000261696295433278
891,0.000594139099121094,0.000267994361152627
892,0.000573158264160156,0.000240235084439603
893,0.000500679016113281,0.000236245744657967
894,0.000680923461914063,0.000234413845349879
895,0.000540733337402344,0.000261494645562956
896,0.000532150268554688,0.000253275502774051
897,0.000601768493652344,0.000256763416284556
898,0.000552177429199219,0.000263718108697852
899,0.000578880310058594,0.000236553526757225
900,0.000695228576660156,0.000270238388415782
901,0.000492572784423828,0.000272283620715096
902,0.000592231750488281,0.000252174284073462
903,0.000617504119873047,0.000260979384676972
904,0.000637054443359375,0.000250000951809859
905,0.000557899475097656,0.000238814978087173
906,0.000606536865234375,0.00024449799131717
907,0.000499725341796875,0.000258739417190543
908,0.000680446624755859,0.000267743108956593
909,0.000631809234619141,0.000247323625362479
910,0.000635147094726563,0.000239814486576415
911,0.000629425048828125,0.000232383642738617
912,0.000570297241210938,0.000256103728815214
913,0.000627040863037109,0.000280743318452358
914,0.000714778900146484,0.000227618705692649
915,0.000683307647705078,0.000233293767476749
916,0.000413894653320313,0.000239028151407685
917,0.000590324401855469,0.000252167070747067
918,0.000569343566894531,0.000252304088683657
919,0.000634193420410156,0.000248299872822729
920,0.000584602355957031,0.000241424682784963
921,0.000606536865234375,0.000238391874725174
922,0.000596523284912109,0.000248292546938035
923,0.000553131103515625,0.000264723224823603
924,0.000538825988769531,0.000238666405620981
925,0.000645160675048828,0.000231795834738111
926,0.00067901611328125,0.000219100318002915
927,0.000592708587646484,0.000271138849547071
928,0.000531196594238281,0.000271715185278849
929,0.000695228576660156,0.00024182743707859
930,0.000594615936279297,0.000227086656566442
931,0.00048065185546875,0.000254450601944289
932,0.000663280487060547,0.00025317493675747
933,0.000599384307861328,0.00026982074028421
934,0.000348567962646484,0.000284942820609105
935,0.000516891479492188,0.000262480556706021
936,0.000549793243408203,0.000250117339596336
937,0.000555515289306641,0.000239567847718927
938,0.000523567199707031,0.000276196990580828
939,0.000535011291503906,0.00026774990265647
940,0.000523090362548828,0.000277425809258678
941,0.000406742095947266,0.000241307871372465
942,0.000570774078369141,0.000267294342986293
943,0.000661849975585938,0.000289364338203627
944,0.000334739685058594,0.000267987573649969
945,0.000562191009521484,0.000251697761107832
946,0.000446319580078125,0.000262529062201411
947,0.000541210174560547,0.000249950015111394
948,0.000563144683837891,0.000237650588029349
949,0.000482082366943359,0.000257986089306658
950,0.000696659088134766,0.000234971882074914
951,0.000579833984375,0.000229231249810388
952,0.000639438629150391,0.000298181491788678
953,0.000395298004150391,0.000257569760504071
954,0.000590324401855469,0.000262653749485668
955,0.00058746337890625,0.000273416946268748
956,0.000635147094726563,0.000277753449273248
957,0.000699996948242188,0.000259273161737656
958,0.000387668609619141,0.000292590015701975
959,0.000594615936279297,0.000275913654097076
960,0.000646114349365234,0.000270641950373523
961,0.000502586364746094,0.000243543849174688
962,0.000673770904541016,0.000292515403941052
963,0.000573158264160156,0.000294714682395219
964,0.000559329986572266,0.000271581262856953
965,0.00040435791015625,0.000242394671401693
966,0.000785350799560547,0.000282455085349018
967,0.000705242156982422,0.000234347878317378
968,0.000500202178955078,0.000304573179387207
969,0.000783920288085938,0.000315163029827461
970,0.000691413879394531,0.000309508090279299
971,0.000662803649902344,0.000258704263811145
972,0.000749111175537109,0.000238586366740776
973,0.000640392303466797,0.00026373190328966
974,0.000575065612792969,0.000265717693592346
975,0.000384330749511719,0.000261876952961665
976,0.000559329986572266,0.000311090842401787
977,0.000658512115478516,0.000260595760502701
978,0.000505447387695313,0.000286070504011735
979,0.000659465789794922,0.000301933951265689
980,0.000459194183349609,0.000278583922529078
981,0.000628948211669922,0.000243237434083927
982,0.000715732574462891,0.000256494071563938
983,0.000701904296875,0.000301258455981765
984,0.000616550445556641,0.000266353570873558
985,0.000634670257568359,0.000262833748913385
986,0.000421524047851563,0.000253992673489133
987,0.000822544097900391,0.000261278916706029
988,0.000667572021484375,0.000301831518048051
989,0.000601768493652344,0.000250328154533514
990,0.000962257385253906,0.000364488285240246
991,0.000196933746337891,0.000265484842144697
992,0.000723838806152344,0.000285019414711275
993,0.000568866729736328,0.000289546579343339
994,0.000502109527587891,0.000298126584249137
995,0.000669956207275391,0.000258591740883488
996,0.000405311584472656,0.00027620357634309
997,0.000808238983154297,0.000390116912496593
998,0.000800132751464844,0.000427212032595264
999,0.000792503356933594,0.00030456720707132
1000,0.000617027282714844,0.000274174316979064
1001,0.000906467437744141,0.000254193118696703
1002,0.000622272491455078,0.000279157919512794
1003,0.000681877136230469,0.000311593290049166
1004,0.000730514526367188,0.000412710755551674
1005,0.000601291656494141,0.000325598434298231
1006,0.00105714797973633,0.00032995477535721
1007,0.000500679016113281,0.000362064812339922
1008,0.000775337219238281,0.000289584270087778
1009,0.000358104705810547,0.000318333001229121
1010,0.0006561279296875,0.00034631905132724
1011,0.000832080841064453,0.000320990398258969
1012,0.000597953796386719,0.000398138182774022
1013,0.000616073608398438,0.00038794739752882
1014,0.000683307647705078,0.000478831887344763
1015,0.000702857971191406,0.000500234679192673
1016,0.000532627105712891,0.000414057229453857
1017,0.000871181488037109,0.00043313195578727
1018,0.000941753387451172,0.000443818346321075
1019,0.000482082366943359,0.00033038449740867
1020,0.00101947784423828,0.000268854981203818
1021,0.000959396362304688,0.000347776139809175
1022,0.000880241394042969,0.000357565556501785
1023,0.000980377197265625,0.00042739082337373
1024,0.00101089477539062,0.000453876842249498
1025,0.000727653503417969,0.00048369248193875
1026,0.000950813293457031,0.000532078481774895
1027,0.000854969024658203,0.000558914988354536
1028,0.000936031341552734,0.000500394649586213
1029,0.000680446624755859,0.000357870655300007
1030,0.000776290893554688,0.000369730566298322
1031,0.00115060806274414,0.000541136018151099
1032,0.00108766555786133,0.000492288123168964
1033,0.000901222229003906,0.000634789007929963
1034,0.000541210174560547,0.000649888288545131
1035,0.000988960266113281,0.000407780253708475
1036,0.00155067443847656,0.000400661269455545
1037,0.000702857971191406,0.000552011870236503
1038,0.000471115112304688,0.000522627447457982
1039,0.00114727020263672,0.000540369069222517
1040,0.000463008880615234,0.000752723967554968
1041,0.00164413452148437,0.000545688410467064
1042,0.000665664672851563,0.000427382311223173
1043,0.000315189361572266,0.000526980787333042
1044,0.00134944915771484,0.000547724642816088
1045,0.000382900238037109,0.000733116932722537
1046,0.00102376937866211,0.00085530923200937
1047,0.00162887573242187,0.00061773365865352
1048,0.000452518463134766,0.000757368730851601
1049,0.00119352340698242,0.000749682646157682
1050,0.000396728515625,0.000635854081299275
1051,0.0014491081237793,0.00087006880992833
1052,0.002166748046875,0.000806337133216269
1053,0.00112819671630859,0.000958848269606937
1054,0.000684738159179688,0.000652290923869264
1055,0.0011601448059082,0.000575501164723087
1056,0.00194787979125977,0.00116752173567415
1057,0.0004730224609375,0.000746843297287524
1058,0.000796318054199219,0.000888079220310343
1059,0.00200271606445312,0.00106021136567194
1060,0.00127983093261719,0.000935480132340354
1061,0.000871658325195313,0.00110881117139676
1062,0.00197315216064453,0.00120155092011813
1063,0.00310707092285156,0.00130042576586246
1064,0.00184059143066406,0.00145835232864225
1065,0.00202322006225586,0.00115901527106462
1066,0.00141096115112305,0.00104811887895404
1067,0.000485420227050781,0.00127664188619091
1068,-0.0012059211730957,0.00137669882218422
1069,0.00176811218261719,0.000826619459886588
1070,0.00155878067016602,0.000708712851599511
1071,-0.000369548797607422,0.00110304793008926
1072,0.00172996520996094,0.00158342564908703
1073,0.000980377197265625,0.00135638104472599
1074,-0.0000948905944824219,0.00149317991000062
1075,0.00354194641113281,0.00170061925196281
1076,0.00212764739990234,0.00238940164330665
1077,0.00102949142456055,0.00190050040121082
1078,0.000560760498046875,0.00173588426750414
1079,0.000319957733154297,0.00160775800599632
1080,0.00142383575439453,0.00210073130595406
1081,0.00351238250732422,0.00295823808581634
1082,-0.000171661376953125,0.00246102083155915
1083,0.00351905822753906,0.001946736856063
1084,0.00244283676147461,0.00170393606874312
1085,0.000474929809570313,0.0023123988760927
1086,0.00225162506103516,0.00215192208772339
1087,0.000469207763671875,0.0017667938304928
1088,0.00253820419311523,0.00214981121881185
1089,0.00366926193237305,0.00317404819605861
1090,0.00170803070068359,0.00281084952670014
1091,0.0000853538513183594,0.00210897221075098
1092,0.0021514892578125,0.00192236520361616
1093,0.00148725509643555,0.00185160234062372
1094,0.00275135040283203,0.00244474183148136
1095,0.00603818893432617,0.00265200212157767
1096,-0.00240898132324219,0.00288047788001389
1097,0.00415372848510742,0.00290254095750114
1098,-0.000291347503662109,0.00263398700065092
1099,-0.000400066375732422,0.00301715304642953
1100,-0.0000510215759277344,0.00248399776317758
