Wavelength (nm),Absorbance (AU),Std.Dev.
190,0.873898029327393,0.313517630195432
191,0.721439838409424,0.186126766526938
192,0.575879573822022,0.144445445391455
193,0.793089866638184,0.147360660233898
194,0.960531711578369,0.180708926017457
195,0.728452682495117,0.19762305180689
196,1.15043592453003,0.524209435461212
197,1.7487530708313,0.827866999904725
198,1.20402812957764,0.395487316212741
199,1.05161476135254,0.152825011070796
200,1.54010725021362,0.247153287080009
201,1.43324565887451,0.120277855579174
202,1.76979207992554,0.04839160344456
203,1.82472896575928,0.0375135397309688
204,1.827796459198,0.0171811525588396
205,1.85956287384033,0.00570964231820525
206,1.85410737991333,0.00468193757313407
207,1.8521523475647,0.00643045273001266
208,1.86856985092163,0.00339856772337718
209,1.88207626342773,0.00274853107386354
210,1.89708280563354,0.00290839084098838
211,1.91890573501587,0.00279465044517653
212,1.93651962280273,0.00362780718384793
213,1.9547233581543,0.00428628048889005
214,1.95669078826904,0.00325631281870838
215,1.97712707519531,0.00264228304324214
216,1.97102308273315,0.00389747826847896
217,1.98709917068481,0.00436550728373651
218,1.97929096221924,0.00564319449570912
219,1.95824289321899,0.00388647078676801
220,1.94330883026123,0.00253217754029687
221,1.9088454246521,0.00370578156722607
222,1.86824369430542,0.00317390148371501
223,1.83545541763306,0.00269804560262391
224,1.78629875183105,0.00386369894641282
225,1.74449968338013,0.0041194209097965
226,1.69210386276245,0.00258720856801401
227,1.63754320144653,0.00126530696410986
228,1.58380746841431,0.00111496233753832
229,1.53071212768555,0.0011584375781025
230,1.47834396362305,0.000925140770948738
231,1.42987489700317,0.000887407146972741
232,1.38512706756592,0.000667582920530449
233,1.34070348739624,0.000438391542369422
234,1.30375480651855,0.000458232321849648
235,1.26849031448364,0.000510671002512931
236,1.23383474349976,0.0005817006831741
237,1.20514154434204,0.000586049744663296
238,1.18028736114502,0.00071559897770066
239,1.15775442123413,0.000519387528251752
240,1.13597059249878,0.000410793482112066
241,1.11941766738892,0.000458668767692438
242,1.10565948486328,0.00039826608691828
243,1.09451913833618,0.000334423002330302
244,1.08667230606079,0.000392163124338578
245,1.08072900772095,0.000522502135497445
246,1.08053588867187,0.000363348663007528
247,1.08050060272217,0.000448701485558126
248,1.0854606628418,0.000627224862548431
249,1.09291458129883,0.000630314516384378
250,1.10415267944336,0.000612362885485221
251,1.11861991882324,0.000532310899124524
252,1.13350534439087,0.000756311234741786
253,1.1521782875061,0.00076573812247518
254,1.17220449447632,0.000802882769018114
255,1.19046688079834,0.000976592301867654
256,1.21034383773804,0.00105133499565354
257,1.23055505752563,0.0011592663521254
258,1.25168561935425,0.000953155376388026
259,1.26813364028931,0.00150471312688235
260,1.27591276168823,0.00100244553867534
261,1.2835865020752,0.00113437064481325
262,1.28828716278076,0.000797919416402124
263,1.28691101074219,0.00128001142158665
264,1.28470516204834,0.00182793669668199
265,1.28035497665405,0.0015547874960059
266,1.25941753387451,0.00110011530564428
267,1.22820997238159,0.00107319848420261
268,1.18724250793457,0.00115105289961511
269,1.1434473991394,0.00111861078425733
270,1.09681749343872,0.000841398048405181
271,1.05346441268921,0.00115145738101198
272,1.01706504821777,0.000700347667010702
273,0.970188140869141,0.00044536488469597
274,0.913058280944824,0.000360019317452638
275,0.847432136535645,0.000465017698903527
276,0.777845859527588,0.00051075648238562
277,0.710214614868164,0.000365016898007376
278,0.65105152130127,0.000384925448438047
279,0.600677490234375,0.000348778920451814
280,0.559152603149414,0.000293836946330286
281,0.524106979370117,0.000257138610128646
282,0.495547771453857,0.000215623211075784
283,0.471431732177734,0.000201444370990367
284,0.451133728027344,0.000195258848450771
285,0.43370532989502,0.000262556775604022
286,0.418978214263916,0.000222486311126535
287,0.406755924224854,0.000185621381532316
288,0.396697044372559,0.000182543328784036
289,0.388187885284424,0.000238021519957417
290,0.381279468536377,0.000299508399590508
291,0.375708103179932,0.000260295442340576
292,0.371315002441406,0.000310763230471458
293,0.368283748626709,0.000225914153351864
294,0.366013526916504,0.00020929620831776
295,0.364272117614746,0.000189615781385642
296,0.363273620605469,0.000218855269468591
297,0.363002300262451,0.000336872544010964
298,0.363885402679443,0.000248387766585773
299,0.364527702331543,0.000190834972812615
300,0.366095066070557,0.000208294347627044
301,0.368102550506592,0.000266933424126126
302,0.370187759399414,0.000259378376275948
303,0.372879028320312,0.000246306586568572
304,0.376182556152344,0.000330896128954449
305,0.379411220550537,0.000276558974615354
306,0.383183002471924,0.000262272574403978
307,0.387139320373535,0.00019455423536481
308,0.390814304351807,0.000211771536672007
309,0.395042896270752,0.000294375024730232
310,0.399147033691406,0.000229801871976151
311,0.403630256652832,0.000271634839748943
312,0.407948017120361,0.00023042239843405
313,0.412024974822998,0.000245092443911881
314,0.416469573974609,0.00029060633170636
315,0.420870304107666,0.000261856114223183
316,0.424491405487061,0.000273396987127705
317,0.428928375244141,0.000279366353286394
318,0.432933807373047,0.000274373277589398
319,0.436063289642334,0.000294436809813236
320,0.439460754394531,0.000239385551296039
321,0.442888736724854,0.000332393466198383
322,0.445266723632813,0.000240575569919354
323,0.447296619415283,0.000180710588405491
324,0.449591159820557,0.000252015543199635
325,0.451160430908203,0.000316849590753251
326,0.452778816223145,0.00024208304484916
327,0.453634262084961,0.000313740007942055
328,0.453916072845459,0.000369632157798989
329,0.454927921295166,0.00029239722971578
330,0.453925132751465,0.000342527103349075
331,0.453254699707031,0.000263718108697852
332,0.452366828918457,0.000258021340531706
333,0.450766563415527,0.00026301362515438
334,0.44887113571167,0.000268475835234585
335,0.446266174316406,0.000217763756742118
336,0.444065093994141,0.000202390272440276
337,0.441173553466797,0.000230852228806842
338,0.437656879425049,0.000194591629865249
339,0.433738708496094,0.000237106527736779
340,0.429449081420898,0.000234631017340665
341,0.42477560043335,0.000233071447302095
342,0.419370651245117,0.000271587960546458
343,0.414918422698975,0.000227982023889866
344,0.409428119659424,0.000206852816610287
345,0.403475284576416,0.000198959411438527
346,0.397384166717529,0.00019063470117857
347,0.390815734863281,0.000202178955078125
348,0.384135723114014,0.000195645071542361
349,0.377389907836914,0.000228559744225516
350,0.370065689086914,0.000165112397128876
351,0.362597465515137,0.000204402464784661
352,0.355504512786865,0.000289163111240345
353,0.347265243530273,0.00026497047571015
354,0.339914798736572,0.000239267744373952
355,0.332146167755127,0.00023358986522999
356,0.323510646820068,0.000229631626348356
357,0.315194606781006,0.000257110312713558
358,0.306634426116943,0.000265443729509198
359,0.297980785369873,0.000358632266738397
360,0.289706707000732,0.000372680499754344
361,0.282251358032227,0.000332656037603582
362,0.273252964019775,0.000322217748076654
363,0.264925003051758,0.000285140646628454
364,0.257548332214355,0.000322770505310949
365,0.249947071075439,0.000322770505310949
366,0.243433475494385,0.000275636625663759
367,0.237639904022217,0.000255620299182546
368,0.230871200561523,0.000273629753186225
369,0.223740100860596,0.000204997834598612
370,0.217177867889404,0.000170843507249462
371,0.21052360534668,0.000211044484730646
372,0.203542709350586,0.00020125013803561
373,0.196828365325928,0.000218784611328835
374,0.190516948699951,0.000230015490329531
375,0.183860301971436,0.000218222690352838
376,0.177700042724609,0.000207305194455359
377,0.171564102172852,0.000260407229093567
378,0.165380477905273,0.000226593499231308
379,0.159378051757812,0.000236137926148466
380,0.153738021850586,0.000336850944771112
381,0.148266792297363,0.000280321854719144
382,0.1426682472229,0.000243861068172279
383,0.137460231781006,0.000196447649987545
384,0.132361888885498,0.00019563577392698
385,0.127330780029297,0.000225797373749091
386,0.122553825378418,0.000240783407358599
387,0.117738246917725,0.000230118272885981
388,0.113284587860107,0.00023258706942015
389,0.108863830566406,0.000234025536964157
390,0.104694366455078,0.000180625009182002
391,0.100651741027832,0.000249396318466907
392,0.0964527130126953,0.000247580905807957
393,0.0924396514892578,0.00020446474870181
394,0.0891985893249512,0.000205741834369959
395,0.0855655670166016,0.000185983608142836
396,0.082148551940918,0.000204864693170916
397,0.0786676406860352,0.000207107675195814
398,0.0752558708190918,0.000187614668797554
399,0.0720019340515137,0.00018227907297649
400,0.0694561004638672,0.000200335174644484
401,0.0665817260742188,0.000190491521100904
402,0.0636739730834961,0.00023413821269512
403,0.0609683990478516,0.000216225541135499
404,0.0580744743347168,0.000237240742969069
405,0.0556702613830566,0.00022806977218342
406,0.0533909797668457,0.000249585879235648
407,0.0512347221374512,0.000253340131275548
408,0.0489768981933594,0.000191106434335408
409,0.0465664863586426,0.000197182399064401
410,0.0448517799377441,0.000286870560698064
411,0.0424594879150391,0.000210738288613085
412,0.0404410362243652,0.000228229228101791
413,0.0388011932373047,0.000221359292898939
414,0.0370979309082031,0.000182119336656642
415,0.0356640815734863,0.000205710888102917
416,0.0339350700378418,0.000264558262523848
417,0.0321474075317383,0.000252793860141763
418,0.031071662902832,0.000301602423883697
419,0.0294208526611328,0.000272457258223572
420,0.027928352355957,0.000239396948889328
421,0.026766300201416,0.000220432901212411
422,0.0255751609802246,0.000171396262699236
423,0.024381160736084,0.000207463074465559
424,0.0233702659606934,0.000275893875576787
425,0.0223388671875,0.000217959964792636
426,0.0210180282592773,0.000183938040943011
427,0.0201964378356934,0.000179016634175908
428,0.0191926956176758,0.000147687175942661
429,0.0184659957885742,0.000177537174655458
430,0.0169134140014648,0.000213503804305355
431,0.0167145729064941,0.000231175060670863
432,0.0158729553222656,0.000266339912066294
433,0.0147438049316406,0.000200516687026236
434,0.0142030715942383,0.000160939428394012
435,0.0137081146240234,0.000178242724738857
436,0.0128927230834961,0.000191980111716412
437,0.0122404098510742,0.000221100294482606
438,0.0114045143127441,0.000194367154947136
439,0.0109624862670898,0.000185748730834043
440,0.0104870796203613,0.000194899860734296
441,0.00973320007324219,0.000193771977509633
442,0.00956106185913086,0.000190362566954327
443,0.00906848907470703,0.000237807444282639
444,0.00837516784667969,0.000202079964641734
445,0.00813913345336914,0.000214871098663364
446,0.00757551193237305,0.000257251768662152
447,0.00722026824951172,0.000200394184202241
448,0.00689601898193359,0.000192944129563378
449,0.00669240951538086,0.000247999334097276
450,0.00616359710693359,0.000213243794984152
451,0.00589609146118164,0.000160622651594327
452,0.00573873519897461,0.000211917506082305
453,0.00542783737182617,0.000199684918597096
454,0.00506353378295898,0.00016914214536587
455,0.00486183166503906,0.000210111572323035
456,0.00456953048706055,0.000182792276515541
457,0.00432062149047852,0.000175289386457642
458,0.00399303436279297,0.000178405932029306
459,0.00388050079345703,0.000166330752818686
460,0.00385284423828125,0.000191690909907147
461,0.00352668762207031,0.000184150534754329
462,0.00343799591064453,0.000197716719757344
463,0.00311088562011719,0.000196683623225752
464,0.0028839111328125,0.000204775884126873
465,0.00278615951538086,0.000187566185795789
466,0.00276803970336914,0.000180499083673325
467,0.00268077850341797,0.000224699107417503
468,0.00256204605102539,0.000197647707880842
469,0.00237941741943359,0.000208904748078813
470,0.00242376327514648,0.000195747316164727
471,0.00229310989379883,0.00021218342707941
472,0.00194311141967773,0.000206566825575596
473,0.00190591812133789,0.000196007334536981
474,0.0019230842590332,0.000177465440390497
475,0.00189304351806641,0.000181273394559312
476,0.0016932487487793,0.00019099218177378
477,0.00178146362304687,0.000187119552770025
478,0.00154638290405273,0.000179179136543807
479,0.00145626068115234,0.000197781109116249
480,0.0014491081237793,0.00020578603525009
481,0.0014338493347168,0.000176411705125442
482,0.00134754180908203,0.000187648599445455
483,0.00119733810424805,0.000201683517031245
484,0.00109672546386719,0.000196914695021441
485,0.000836849212646484,0.00020370269088475
486,0.00103473663330078,0.000182767397001533
487,0.00140953063964844,0.000147045323080843
488,0.00124549865722656,0.000170254238244471
489,0.00102949142456055,0.000203899048078808
490,0.00116682052612305,0.000193940874718356
491,0.000949382781982422,0.00017147849195459
492,0.00100803375244141,0.000237807444282639
493,0.000893592834472656,0.000219593736449837
494,0.000883579254150391,0.000203497205782106
495,0.000834941864013672,0.000205370171397936
496,0.000761032104492188,0.000221022124280868
497,0.000756263732910156,0.000192920559261971
498,0.000864505767822266,0.000192995974093784
499,0.000757217407226563,0.000220494781747718
500,0.000849246978759766,0.000182672823945021
501,0.000722885131835938,0.000164026437710043
502,0.000689983367919922,0.000212179140675421
503,0.000733375549316406,0.000181037430033375
504,0.000667095184326172,0.000177588395675726
505,0.000707149505615234,0.000204224406068185
506,0.000741481781005859,0.000195384571070023
507,0.000740528106689453,0.000191572258445583
508,0.000627040863037109,0.000179594877721151
509,0.000741481781005859,0.000203076654879855
510,0.000655651092529297,0.000195621826675342
511,0.000689506530761719,0.000182229170417727
512,0.000750541687011719,0.000166232299881722
513,0.000658035278320313,0.000208455841513993
514,0.000580310821533203,0.000206914362940949
515,0.000718116760253906,0.000190343455206178
516,0.000810623168945313,0.000170630432201161
517,0.000707149505615234,0.000187672831866678
518,0.000719070434570313,0.000176664145162622
519,0.000623703002929688,0.00020543216192132
520,0.000757217407226563,0.000187973054355879
521,0.000547409057617188,0.000164969118204442
522,0.000505447387695313,0.000176556000771895
523,0.000721931457519531,0.000204371315708002
524,0.000680923461914063,0.000202124966304611
525,0.000794887542724609,0.000187061217669542
526,0.000698089599609375,0.000181007284761327
527,0.000742912292480469,0.000188461102335831
528,0.000659465789794922,0.000151676196159273
529,0.000794887542724609,0.000178242724738857
530,0.000745296478271484,0.000209804014681336
531,0.000655651092529297,0.000207782851778391
532,0.000723361968994141,0.000204535907097388
533,0.000712394714355469,0.000198167005914586
534,0.000713825225830078,0.000196211392956801
535,0.000803947448730469,0.000186978545122566
536,0.000843524932861328,0.000201489514609917
537,0.000717639923095703,0.000195900583041528
538,0.000792980194091797,0.000209686937748899
539,0.000871181488037109,0.000211750062095399
540,0.000759124755859375,0.000223514080022684
541,0.000769615173339844,0.000226854244406225
542,0.000848293304443359,0.000202659719092527
543,0.000873088836669922,0.000193156132846278
544,0.0008392333984375,0.000194189261610701
545,0.000737667083740234,0.000195589279220444
546,0.000800609588623047,0.000224058672111709
547,0.000755786895751953,0.000212868140010972
548,0.0007476806640625,0.000204184321458017
549,0.00084686279296875,0.000198867965273178
550,0.000710487365722656,0.00020683962572824
551,0.0007781982421875,0.000169668283130692
552,0.000812530517578125,0.000198927410062415
553,0.00070953369140625,0.000241036349020754
554,0.0007171630859375,0.000252844223934467
555,0.000768184661865234,0.000206073109878949
556,0.000695705413818359,0.000201498542120153
557,0.000713825225830078,0.000217412645999589
558,0.000753402709960938,0.000192003797466779
559,0.000770092010498047,0.000206298073366579
560,0.000714778900146484,0.000194460717653501
561,0.000772953033447266,0.000174201607970063
562,0.000770092010498047,0.000181082638532028
563,0.000872611999511719,0.00020716914581246
564,0.00067138671875,0.000207787228872625
565,0.000736236572265625,0.000211801597421379
566,0.000782489776611328,0.000206676868960867
567,0.000807285308837891,0.000190176145482819
568,0.000796318054199219,0.000214917653821737
569,0.000722408294677734,0.000215192546886435
570,0.000756740570068359,0.00022935024650464
571,0.000797748565673828,0.000223879996906169
572,0.000792026519775391,0.000208228841451713
573,0.000721454620361328,0.000224529043375848
574,0.000710964202880859,0.000218859425119352
575,0.0008544921875,0.000193429038775295
576,0.000771522521972656,0.00020498452434735
577,0.000805854797363281,0.000202336340051921
578,0.0007476806640625,0.000207502525698686
579,0.000911712646484375,0.000194792502314557
580,0.000841617584228516,0.000215289732666823
581,0.000686168670654297,0.000225370009351757
582,0.000720024108886719,0.000202982582946708
583,0.00102472305297852,0.00020045771353014
584,0.000819683074951172,0.000206218702511432
585,0.000624179840087891,0.000219253852775521
586,0.000827789306640625,0.000219651712808369
587,0.000823020935058594,0.000213277912626862
588,0.000715255737304688,0.000206553616429653
589,0.000761508941650391,0.00021118665011203
590,0.000773906707763672,0.000219800724653441
591,0.000813484191894531,0.000212487540751959
592,0.000746726989746094,0.000228647270806611
593,0.000662326812744141,0.000227250804522383
594,0.000822544097900391,0.000204032819638289
595,0.000707149505615234,0.000205533962906253
596,0.000764369964599609,0.000201480486695196
597,0.000743389129638672,0.000208084655277619
598,0.000763893127441406,0.000193823600604861
599,0.000578880310058594,0.000213720946358657
600,0.000667572021484375,0.000212590241357642
601,0.000719070434570313,0.000209587153962806
602,0.000665664672851563,0.000215956174529723
603,0.000674247741699219,0.000220304959693173
604,0.000690937042236328,0.000202937771461307
605,0.000739574432373047,0.000217508839813062
606,0.000649452209472656,0.000213128607618375
607,0.000736236572265625,0.00020808028443993
608,0.000713348388671875,0.000190915975413929
609,0.000757694244384766,0.000188074633965755
610,0.000601291656494141,0.000191652949431522
611,0.000659465789794922,0.000198749022355839
612,0.000638008117675781,0.000197597083852753
613,0.000681400299072266,0.000225160062325064
614,0.000707626342773438,0.00020370269088475
615,0.000640392303466797,0.000198001713665877
616,0.000699520111083984,0.000196183579306798
617,0.000690937042236328,0.00021171140236835
618,0.00066375732421875,0.000232477554095346
619,0.000630855560302734,0.000212251997770622
620,0.000621318817138672,0.000206368599610549
621,0.000711441040039063,0.000203689296001232
622,0.000579357147216797,0.00021502342351318
623,0.000659465789794922,0.000226203828265007
624,0.000592231750488281,0.000209912361025964
625,0.000597000122070313,0.000228125594433082
626,0.000652790069580078,0.000202489111177187
627,0.000714778900146484,0.000176086607590818
628,0.000787258148193359,0.000183497446437375
629,0.000630855560302734,0.000196419869792258
630,0.000651836395263672,0.000230497380676587
631,0.000617504119873047,0.000205117587992877
632,0.00069427490234375,0.000199311087458872
633,0.000571727752685547,0.000204642598297217
634,0.000594139099121094,0.000217993344319581
635,0.000687599182128906,0.000223102725305248
636,0.000688076019287109,0.000209899362417527
637,0.000654697418212891,0.000189960816453138
638,0.000619888305664063,0.00020096975074954
639,0.000581741333007813,0.000224686964254742
640,0.000590324401855469,0.000205741834369959
641,0.000570774078369141,0.000186081386188675
642,0.000557422637939453,0.000201010476396043
643,0.000689506530761719,0.000231285192737184
644,0.000608444213867188,0.000226842216610817
645,0.000594139099121094,0.000216578576385655
646,0.000576019287109375,0.000195552075495875
647,0.0006103515625,0.0002128937739065
648,0.000570297241210938,0.000205161923363111
649,0.000601291656494141,0.00021579607901947
650,0.000616550445556641,0.000219676555135207
651,0.000547885894775391,0.000229004985739679
652,0.000607490539550781,0.000212603075445091
653,0.000640869140625,0.000205538387892268
654,0.000636577606201172,0.000217517202482082
655,0.000663280487060547,0.000219291182817599
656,0.000230312347412109,0.000247095524685131
657,0.00148105621337891,0.000208861207206692
658,0.000914573669433594,0.000214502533697606
659,0.000606060028076172,0.000235671429002052
660,0.000596046447753906,0.000225543471773322
661,0.000647544860839844,0.000216612168782055
662,0.000588893890380859,0.000220230636960771
663,0.000595569610595703,0.000239768972344352
664,0.000616550445556641,0.000238327008782309
665,0.000519275665283203,0.000207747831704527
666,0.000672817230224609,0.000216662547611044
667,0.000626564025878906,0.000206945129242231
668,0.000606536865234375,0.000227054613860403
669,0.000645160675048828,0.000222023901497322
670,0.000675201416015625,0.000195510212843505
671,0.000612258911132813,0.00022307418746418
672,0.000632762908935547,0.000242690908125572
673,0.000573158264160156,0.000224253428156254
674,0.000539779663085938,0.000208608490935607
675,0.000707626342773438,0.00021285104903222
676,0.000550746917724609,0.00022997594634548
677,0.000603199005126953,0.00022603892000317
678,0.000570774078369141,0.000213282176948461
679,0.000516891479492188,0.000214777958072803
680,0.000566482543945313,0.000218093452247702
681,0.00055694580078125,0.000209235362605229
682,0.000599384307861328,0.000208228841451713
683,0.000573158264160156,0.000213520843035225
684,0.000549793243408203,0.000215006503859103
685,0.000643730163574219,0.000234522456483417
686,0.000589370727539063,0.000218405993778986
687,0.000704288482666016,0.000222804936687161
688,0.000640392303466797,0.000234448761558573
689,0.000611305236816406,0.000234095480008961
690,0.000537872314453125,0.000212106258554291
691,0.00058746337890625,0.000199730459893238
692,0.000690937042236328,0.000226549343434162
693,0.000534534454345703,0.000230240761351106
694,0.000576019287109375,0.000218281030867275
695,0.000579833984375,0.000210470541750033
696,0.000550270080566406,0.000221293544239911
697,0.000615119934082031,0.000228965267234127
698,0.000577449798583984,0.000210824586032187
699,0.000589847564697266,0.000193649904579118
700,0.000607013702392578,0.000210263019699571
701,0.000565052032470703,0.000232544051693469
702,0.000561714172363281,0.000217441926882484
703,0.000554561614990234,0.000208150206829248
704,0.000477313995361328,0.000198212895965896
705,0.000577449798583984,0.000203622308366309
706,0.000514507293701172,0.000216729701166602
707,0.000522136688232422,0.000214536451163714
708,0.000563144683837891,0.000208442752076191
709,0.000515460968017578,0.000229869143609149
710,0.00060272216796875,0.00021637270915821
711,0.000551223754882813,0.000220486532013106
712,0.000504016876220703,0.000220651468101412
713,0.000529289245605469,0.000219515029757266
714,0.000527381896972656,0.000234960269827937
715,0.000510215759277344,0.000233994444455705
716,0.000509262084960938,0.000218954983318157
717,0.000550746917724609,0.000201042146195242
718,0.000558853149414063,0.000228101672284588
719,0.000517845153808594,0.000225402291537685
720,0.000483036041259766,0.000206685669900635
721,0.000477790832519531,0.000215289732666823
722,0.000594139099121094,0.000231964491994551
723,0.000512123107910156,0.000222253180500733
724,0.000564098358154297,0.000221314092794109
725,0.000547409057617188,0.000213085929829521
726,0.000571727752685547,0.000220618490748351
727,0.00054931640625,0.000223066033124716
728,0.000490188598632813,0.00021080301498941
729,0.000559329986572266,0.000228237197973394
730,0.000604629516601563,0.000232164368510482
731,0.000616550445556641,0.000221063269937959
732,0.000598430633544922,0.000229429543345686
733,0.0005035400390625,0.000213004818472832
734,0.000609397888183594,0.000212414764446719
735,0.000555992126464844,0.000221416806960014
736,0.000677585601806641,0.000215268609055603
737,0.000568389892578125,0.000211891754081471
738,0.000543117523193359,0.00021891759594702
739,0.000606060028076172,0.000219614444049153
740,0.000565528869628906,0.00021701487194938
741,0.000545024871826172,0.000216305444771986
742,0.000584602355957031,0.000223843432135218
743,0.000520706176757813,0.000231513156785705
744,0.000550270080566406,0.000218726405133581
745,0.000517845153808594,0.000222420895619626
746,0.000545024871826172,0.000223806861390446
747,0.000542640686035156,0.00023765824195576
748,0.000488758087158203,0.000232864538109832
749,0.000548839569091797,0.000225285246604691
750,0.00058746337890625,0.000241251329416558
751,0.000590801239013672,0.000232774690103593
752,0.000553607940673828,0.000241522610085085
753,0.000565528869628906,0.00024944007604571
754,0.000562667846679688,0.000231999776833776
755,0.000513553619384766,0.000237363387626292
756,0.000566482543945313,0.000214281939308258
757,0.000514030456542969,0.000237673549069131
758,0.000592708587646484,0.000235347035965978
759,0.000568866729736328,0.000221112634619792
760,0.000618457794189453,0.00021552195574685
761,0.000571727752685547,0.000231186863044568
762,0.000615596771240234,0.000240000246776296
763,0.000523567199707031,0.000219369969823149
764,0.000645637512207031,0.000234506943686966
765,0.000590801239013672,0.000240325927734375
766,0.000614166259765625,0.000242154416441468
767,0.000564098358154297,0.000226424858041117
768,0.000623226165771484,0.000221453772397311
769,0.000577449798583984,0.000238830211062987
770,0.000479221343994141,0.000212577406495351
771,0.000605106353759766,0.000209352692073538
772,0.000544071197509766,0.000201669988034615
773,0.000527381896972656,0.00022282126417778
774,0.000547409057617188,0.000217901538316639
775,0.000619411468505859,0.000225628137511787
776,0.00055694580078125,0.000235169202544483
777,0.000576019287109375,0.000235470666960632
778,0.000599384307861328,0.00022676602575836
779,0.000502586364746094,0.000220391637869691
780,0.000497341156005859,0.000210703759748951
781,0.000539302825927734,0.000234576743192214
782,0.000523567199707031,0.000235524735114031
783,0.000546932220458984,0.000223571039761496
784,0.000532627105712891,0.000225216605777363
785,0.000484943389892578,0.00022402213650403
786,0.000531196594238281,0.000234774395763777
787,0.000483989715576172,0.000220742130419606
788,0.000566005706787109,0.000241398310955141
789,0.000523090362548828,0.0002396627388556
790,0.000571727752685547,0.00022821328752359
791,0.000510692596435547,0.000226079152621897
792,0.00054931640625,0.000232887971019387
793,0.0005035400390625,0.000234095480008961
794,0.000566482543945313,0.000218105962507977
795,0.000577449798583984,0.00023473177889414
796,0.000539779663085938,0.000225857784530532
797,0.000634670257568359,0.000225353866524621
798,0.000568389892578125,0.000239070002402674
799,0.000522613525390625,0.000222678358042851
800,0.000573635101318359,0.000237436177917555
801,0.000590324401855469,0.000232895781465302
802,0.000614166259765625,0.000243890902834347
803,0.000549793243408203,0.000239085219129976
804,0.000567913055419922,0.000229706866719431
805,0.000588417053222656,0.000246631315235056
806,0.000607013702392578,0.000246040580697588
807,0.000565528869628906,0.000247404513761003
808,0.000563144683837891,0.0002353509004176
809,0.000577926635742188,0.000238491047336112
810,0.0005645751953125,0.000241315409298944
811,0.000601291656494141,0.000235991522238329
812,0.000539779663085938,0.000231088491512016
813,0.000589847564697266,0.000242244539975193
814,0.0005340576171875,0.000241977827290314
815,0.000543594360351563,0.000241292794813057
816,0.000625133514404297,0.000252808250820631
817,0.000554561614990234,0.000237727116204202
818,0.000579357147216797,0.000250945040099934
819,0.000583648681640625,0.000234421604956804
820,0.000546932220458984,0.00023905478470677
821,0.000595569610595703,0.000250037328812862
822,0.000545024871826172,0.000248526868138644
823,0.000576496124267578,0.000236211094075544
824,0.000522136688232422,0.000223680849725524
825,0.000579833984375,0.000230110368165409
826,0.000519275665283203,0.000240458346019663
827,0.000476837158203125,0.000242222012235411
828,0.000519752502441406,0.0002460923265802
829,0.000491142272949219,0.000230552615145474
830,0.000600814819335938,0.000229702907314328
831,0.000478744506835938,0.000226505179029114
832,0.000562191009521484,0.000234863478775496
833,0.000596046447753906,0.00023873117934593
834,0.000553131103515625,0.000224062731255927
835,0.000551223754882813,0.000216612168782055
836,0.000531673431396484,0.000238365167357058
837,0.000546932220458984,0.000262397383567401
838,0.000567913055419922,0.000235586512094795
839,0.000582218170166016,0.000241405846057634
840,0.000523567199707031,0.000251451927149612
841,0.000457763671875,0.00025331140953278
842,0.000561714172363281,0.000257470871794899
843,0.000509738922119141,0.000232930925230992
844,0.000547885894775391,0.000235389541444412
845,0.000533103942871094,0.000223879996906169
846,0.000521659851074219,0.000227850338087531
847,0.000551223754882813,0.000238181950445008
848,0.000496864318847656,0.00022844431703969
849,0.000614643096923828,0.000232884065698199
850,0.000484943389892578,0.000242383414770326
851,0.000488758087158203,0.000238086469129809
852,0.000513076782226563,0.000234056625342225
853,0.000563621520996094,0.000247617638335244
854,0.000517845153808594,0.000244602124809721
855,0.000531196594238281,0.000256912143537562
856,0.00054931640625,0.000239461525004289
857,0.000467300415039063,0.000250981280267659
858,0.000493049621582031,0.000261800536144615
859,0.000604629516601563,0.000241887604383639
860,0.000487804412841797,0.000240911799003157
861,0.000536918640136719,0.000253827903654414
862,0.000503063201904297,0.000261327645240081
863,0.000552177429199219,0.000232117354226323
864,0.000496864318847656,0.000235335442230363
865,0.000538825988769531,0.000254850614366551
866,0.000438690185546875,0.000223277949164223
867,0.000383853912353516,0.000202601369394226
868,0.000565052032470703,0.000217195007289666
869,0.000402450561523438,0.000216977150277567
870,0.000487804412841797,0.000210695126648759
871,0.000378131866455078,0.000254107232968821
872,0.000524044036865234,0.00024583348824643
873,0.000470638275146484,0.000228229228101791
874,0.000481605529785156,0.00022011084199431
875,0.000457286834716797,0.000236880107059632
876,0.000432491302490234,0.000244512870245607
877,0.000420570373535156,0.000245759484364971
878,0.000484466552734375,0.00026052594996259
879,0.000411510467529297,0.000262376586163088
880,0.000456809997558594,0.0002428519990265
881,0.000466823577880859,0.000228969239394725
882,0.000493049621582031,0.000249527568183106
883,0.000409603118896484,0.000248482949744968
884,0.000473499298095703,0.000218622426954718
885,0.000453948974609375,0.000255840799516406
886,0.000369548797607422,0.000248153314037192
887,0.000440597534179688,0.000239909280160226
888,0.000479221343994141,0.000233414589550451
889,0.000384330749511719,0.000246867213247123
890,0.000493526458740234,0.00026575191924438
891,0.000423431396484375,0.0002678993204663
892,0.000443935394287109,0.00023868545854127
893,0.000434398651123047,0.000233079251599752
894,0.000517845153808594,0.000238418579101562
895,0.000430107116699219,0.000260463104478631
896,0.000454425811767578,0.000256259937264514
897,0.000504016876220703,0.000251198611479056
898,0.000405311584472656,0.000265717693592346
899,0.000566482543945313,0.000244110820858401
900,0.000470161437988281,0.000269125472726736
901,0.000451087951660156,0.000273383680224135
902,0.000471115112304688,0.000248790215691571
903,0.000456333160400391,0.000262542919268387
904,0.000475406646728516,0.000256635867180697
905,0.000444412231445313,0.000244114546575098
906,0.000464916229248047,0.000241447284917932
907,0.00038909912109375,0.000251307206604013
908,0.000489711761474609,0.000270971080123935
909,0.000489234924316406,0.000246461624075657
910,0.000531673431396484,0.000241198544965775
911,0.000505924224853516,0.000236330424693638
912,0.000489234924316406,0.000257555635870214
913,0.000462055206298828,0.000282422883891313
914,0.000560760498046875,0.000231536726463219
915,0.00052642822265625,0.000232747338173821
916,0.000477790832519531,0.000252433826546718
917,0.000424385070800781,0.000260162633185362
918,0.000443935394287109,0.000249593167159357
919,0.000549793243408203,0.000234673652508658
920,0.000444412231445313,0.000242473453189023
921,0.000441074371337891,0.000255748354780049
922,0.0005035400390625,0.000248101998008867
923,0.000385284423828125,0.000263469682540737
924,0.000471115112304688,0.000241639317690276
925,0.000507354736328125,0.000234933172352888
926,0.000486373901367188,0.00021662896302683
927,0.000448226928710938,0.000276322093223182
928,0.000517845153808594,0.000279828261338704
929,0.000562191009521484,0.000241816154042257
930,0.000425338745117188,0.000223094572008872
931,0.00048065185546875,0.000250262748212536
932,0.000507354736328125,0.000255798136866459
933,0.000574588775634766,0.000274519090390641
934,0.000333786010742187,0.000289301469812982
935,0.000410079956054688,0.00026096544458751
936,0.000425815582275391,0.000258479168971581
937,0.000409603118896484,0.000232731707056398
938,0.000470161437988281,0.000275240387078056
939,0.000484466552734375,0.00026727392662969
940,0.00040435791015625,0.00026781783017682
941,0.0005035400390625,0.000237187065989835
942,0.000367164611816406,0.000277143729054307
943,0.000496387481689453,0.000306454601703209
944,0.000326633453369141,0.000280633150600426
945,0.000473499298095703,0.000257555635870214
946,0.000426292419433594,0.000271721879667292
947,0.000340461730957031,0.000252332925084538
948,0.000408649444580078,0.000238540618180052
949,0.000354766845703125,0.00025962371104696
950,0.000463008880615234,0.000241940238501382
951,0.000482082366943359,0.000249111706853312
952,0.000525474548339844,0.000285370207969837
953,0.000221729278564453,0.000265922981429302
954,0.000684261322021484,0.000262154644522598
955,0.000344276428222656,0.000260763229546175
956,0.000414371490478516,0.000279314259424903
957,0.000454425811767578,0.000277910579277862
958,0.000498771667480469,0.000293335089522773
959,0.000356674194335937,0.000295127919044251
960,0.000456809997558594,0.000275801557061378
961,0.000421047210693359,0.000246535417192097
962,0.00055694580078125,0.000283874740961376
963,0.000429153442382813,0.000280581291937764
964,0.000568389892578125,0.000268516483623912
965,0.000361442565917969,0.000250937791438337
966,0.000602245330810547,0.000290593812856043
967,0.000480175018310547,0.000237029799196896
968,0.000396251678466797,0.000300260538195326
969,0.000640392303466797,0.000330445054275076
970,0.000293731689453125,0.000306490213184557
971,0.000546455383300781,0.000259966790762479
972,0.000566959381103516,0.000250379014303924
973,0.000508308410644531,0.000265382048613859
974,0.000424385070800781,0.00026845550873187
975,0.000374794006347656,0.000248570778772658
976,0.000409603118896484,0.000317892710365295
977,0.000599861145019531,0.000272357096247922
978,0.000585556030273438,0.000303298420892891
979,0.000582218170166016,0.000307243021216782
980,0.000499725341796875,0.000291992587787775
981,0.000383853912353516,0.000270863653158962
982,0.000481128692626953,0.000274413052400922
983,0.000449657440185547,0.000335682521991924
984,0.000504970550537109,0.000278218035142387
985,0.000225067138671875,0.000304537343735032
986,0.000293254852294922,0.000254522078841664
987,0.000688552856445313,0.000255271377934595
988,0.000370025634765625,0.000288003327761488
989,0.000338077545166016,0.000263683619061057
990,0.000708103179931641,0.000382602915879841
991,0.000446319580078125,0.000257308329267169
992,0.000405311584472656,0.000271004642317373
993,0.000385761260986328,0.000308631170017032
994,0.000277519226074219,0.000330109098916745
995,0.000490665435791016,0.000229012928614167
996,0.000508785247802734,0.000252015543199635
997,0.000521659851074219,0.000347231757799648
998,0.000705718994140625,0.000399005298907104
999,0.000557899475097656,0.000347880730993703
1000,0.000313282012939453,0.000262286445021668
1001,0.000681400299072266,0.000280360785606731
1002,0.000442028045654297,0.000279906255002505
1003,0.000472068786621094,0.00030000599275256
1004,0.00066375732421875,0.000382498308108677
1005,0.000277042388916016,0.000361350709621741
1006,0.000520706176757813,0.000340855528315562
1007,0.000502586364746094,0.000367885970895094
1008,0.000715732574462891,0.000297369048261547
1009,0.0000162124633789062,0.0003818033666695
1010,0.000693321228027344,0.000368834081278273
1011,0.000216960906982422,0.000333366129951796
1012,0.00081634521484375,0.000371908529406932
1013,0.000628471374511719,0.000375442574649673
1014,0.000667095184326172,0.000485156911543919
1015,0.000444412231445313,0.000471983044476657
1016,0.000431537628173828,0.000328772909948963
1017,0.000492095947265625,0.000360261754730923
1018,0.000768184661865234,0.000411430618566457
1019,0.000338554382324219,0.000332776313591986
1020,0.000808238983154297,0.000297845787633351
1021,0.000828742980957031,0.000403042218252951
1022,0.000684261322021484,0.000504593758136914
1023,0.00110292434692383,0.00040924075110291
1024,0.000647068023681641,0.000404267930869848
1025,0.000285148620605469,0.000440122505176008
1026,0.000896930694580078,0.000433618837996838
1027,0.000197410583496094,0.000542183769148652
1028,0.00106906890869141,0.000474205383798996
1029,0.000579833984375,0.000328850358095606
1030,0.000863552093505859,0.000362325962680997
1031,0.000876426696777344,0.00048624298727374
1032,0.000946044921875,0.00045994398314619
1033,0.000681400299072266,0.000654762532940696
1034,0.000949859619140625,0.000686475944775512
1035,0.000988960266113281,0.000412155046576334
1036,0.00113916397094727,0.000386933301522436
1037,0.0011134147644043,0.000650805688847943
1038,0.000560760498046875,0.000609122469276639
1039,0.00109052658081055,0.000505112591111087
1040,0.000659942626953125,0.000722399324418076
1041,0.000869274139404297,0.00054071904050842
1042,0.000344753265380859,0.000577344065719023
1043,0.00135898590087891,0.000640812371782321
1044,0.000456333160400391,0.000647813772060205
1045,0.000885963439941406,0.000661671309307458
1046,0.000782966613769531,0.000747057596734231
1047,0.00122785568237305,0.000606116863199952
1048,0.000429630279541016,0.000816113447997489
1049,0.00149154663085937,0.000760513262650079
1050,0.000341415405273437,0.00058627317667963
1051,0.00203704833984375,0.000930629779628549
1052,0.00166606903076172,0.000723828125926397
1053,0.0019073486328125,0.000958408051429542
1054,0.00089263916015625,0.00070994375541286
1055,0.00102329254150391,0.000655861734019087
1056,0.00222682952880859,0.00130765685661604
1057,0.00101184844970703,0.000846811241436639
1058,0.00145578384399414,0.00112940811102884
1059,0.00216770172119141,0.00102415919156188
1060,0.00131130218505859,0.000708343163356638
1061,0.00162315368652344,0.000977307274059232
1062,0.00341367721557617,0.00144112780189424
1063,0.00182342529296875,0.00125560921302819
1064,0.000697135925292969,0.00178116544723606
1065,0.00252676010131836,0.00146932710561008
1066,-0.00120067596435547,0.00177103868280258
1067,0.00131034851074219,0.00146706730245629
1068,-0.000790119171142578,0.00132874179990971
1069,0.00301980972290039,0.00109812936903823
1070,0.001068115234375,0.0013625893585952
1071,0.000573635101318359,0.00112615652374909
1072,-0.000584602355957031,0.00129326676625032
1073,0.0019068717956543,0.00128128407014348
1074,-0.00122499465942383,0.00124980101640737
1075,-0.0000338554382324219,0.00144391204669764
1076,0.00230884552001953,0.00219609971373029
1077,0.00327634811401367,0.00173326679858176
1078,-0.000197887420654297,0.00185640587481368
1079,0.00154352188110352,0.00168556101319007
1080,0.00148868560791016,0.0018421788856072
1081,0.00498008728027344,0.00239246913116695
1082,-0.00124311447143555,0.00236914506237247
1083,0.00346183776855469,0.00192324309966452
1084,-0.000553607940673828,0.00157206261550359
1085,0.00329303741455078,0.00206129241400619
1086,0.00324201583862305,0.00181877468910043
1087,0.00139236450195312,0.00164203997175271
1088,0.00193977355957031,0.00242110393924545
1089,0.00209760665893555,0.00279006446877549
1090,0.00253200531005859,0.00195473366293305
1091,-0.00375461578369141,0.0021327944779246
1092,0.00576162338256836,0.00234677993109465
1093,-0.0000820159912109375,0.00224962371752711
1094,0.0016169548034668,0.00244164465693871
1095,0.00314664840698242,0.00272594754025334
1096,0.000695705413818359,0.00274149104998483
1097,-0.0000476837158203125,0.00275424312668412
1098,0.000106334686279297,0.00216206864660647
1099,-0.00205373764038086,0.00229115684574848
1100,-0.0000276565551757812,0.00240818306449709
