Wavelength (nm),Absorbance (AU),Std.Dev.
190,1.18682765960693,0.219063670200156
191,0.370952606201172,0.403035282531001
192,1.28647708892822,0.822652911318012
193,1.16568374633789,0.389343601387523
194,0.813971996307373,0.111160955904831
195,0.865128040313721,0.302192054564307
196,1.38443088531494,0.624841288442263
197,1.56800937652588,0.441993525254825
198,0.99101734161377,0.295793672150665
199,1.57765054702759,0.479387757530699
200,1.27367496490479,0.244230452224831
201,1.38280725479126,0.0992160586495216
202,1.78985786437988,0.0472170745936119
203,1.75656223297119,0.024211193259391
204,1.79043912887573,0.0106323872858886
205,1.80640125274658,0.00484586085193897
206,1.83083772659302,0.00376122186375772
207,1.83316469192505,0.00401245228599391
208,1.8446683883667,0.00277902724887664
209,1.85895252227783,0.00286978841159495
210,1.88128280639648,0.00296609822849904
211,1.90524625778198,0.00242653129948136
212,1.90971803665161,0.00218083276706803
213,1.93772315979004,0.0030255527736094
214,1.94621992111206,0.00344166037912618
215,1.95849895477295,0.00373556847036044
216,1.95975065231323,0.00361043715020848
217,1.95968103408813,0.002518023845793
218,1.95546817779541,0.00313388931052255
219,1.94447946548462,0.00276786190023761
220,1.92186689376831,0.0022158367749843
221,1.89437961578369,0.00316633660809075
222,1.8440432548523,0.0019579470237371
223,1.81669759750366,0.00164646505704251
224,1.76751518249512,0.00183945952086472
225,1.72126960754395,0.00198768790109577
226,1.67411279678345,0.00150795904494967
227,1.61454010009766,0.00125175557683185
228,1.56726789474487,0.00107061910066466
229,1.51104545593262,0.00097983527141389
230,1.45854806900024,0.000830237990299939
231,1.41111040115356,0.000752549956386672
232,1.36577415466309,0.000734425823248778
233,1.32018661499023,0.00052342039318741
234,1.28242969512939,0.00044229107657168
235,1.24910402297974,0.000665443296156181
236,1.21474504470825,0.000672285605288293
237,1.18578147888184,0.000524184379147284
238,1.16052436828613,0.000456123592921876
239,1.13892793655395,0.000279346819226776
240,1.11622333526611,0.000292291454383705
241,1.10075998306274,0.000451296582677315
242,1.08735942840576,0.000414741984801286
243,1.07537031173706,0.000511311753231665
244,1.06709003448486,0.000361250018364005
245,1.06128025054932,0.000330648664159891
246,1.06078767776489,0.000366826335091564
247,1.06084251403809,0.000512973959450729
248,1.06473922729492,0.000411625102443339
249,1.07136678695679,0.000491252442382973
250,1.08127784729004,0.000463293373164792
251,1.09411859512329,0.000595642716049489
252,1.10887432098389,0.000512661819272251
253,1.12417364120483,0.000710292123683966
254,1.14174747467041,0.000976309147395683
255,1.15817975997925,0.000719573656866168
256,1.17865228652954,0.000784864112727309
257,1.19450330734253,0.000733632835031514
258,1.21106815338135,0.000789485676286409
259,1.22721433639526,0.00105462409641281
260,1.23458576202393,0.00119206695528417
261,1.24097633361816,0.00125266201463334
262,1.23861122131348,0.000882160599087605
263,1.23760080337524,0.0011605961749026
264,1.23192358016968,0.00094959148008024
265,1.22271299362183,0.00074621953078748
266,1.20168161392212,0.00111835057564597
267,1.17017507553101,0.00113864719697831
268,1.13295078277588,0.00107208603777744
269,1.08762884140015,0.000890713432171403
270,1.0438666343689,0.000677106078236583
271,1.00019645690918,0.000771135178741045
272,0.965609550476074,0.000482774015720749
273,0.92179012298584,0.000391606126910885
274,0.867965698242188,0.000436220264870557
275,0.808404922485352,0.000375510397409812
276,0.745398044586182,0.000293080735658696
277,0.686628341674805,0.000338047615415883
278,0.633882522583008,0.000374889846855803
279,0.590197563171387,0.000305318798885555
280,0.552773475646973,0.000239784144714952
281,0.521186828613281,0.00024143221706439
282,0.495665073394775,0.000270144137212451
283,0.473341464996338,0.000197748917057537
284,0.454292297363281,0.000178064045481416
285,0.438678741455078,0.000241605440644846
286,0.424276828765869,0.000212966386521471
287,0.412574768066406,0.00017496740171151
288,0.402580261230469,0.000173542523764375
289,0.394841194152832,0.000202839151346094
290,0.387648582458496,0.0001755952430435
291,0.382332324981689,0.000176494174226015
292,0.378250122070312,0.000234406085486085
293,0.374861240386963,0.000263621526343872
294,0.372555255889893,0.000241206086308812
295,0.37053394317627,0.000243495296892111
296,0.369784355163574,0.000186237724284884
297,0.36937141418457,0.000207484992743378
298,0.369778633117676,0.000198991407668245
299,0.370463371276855,0.000177874960815952
300,0.372329235076904,0.000166977452302851
301,0.373732089996338,0.000196836161046508
302,0.375216960906982,0.00024710288605807
303,0.378305435180664,0.000289150529905414
304,0.380405902862549,0.000268685785719915
305,0.384059429168701,0.000225636199258552
306,0.387370109558105,0.000215694904841288
307,0.391427040100098,0.000248695150132378
308,0.394767284393311,0.000257216411968152
309,0.398443698883057,0.000260316406013331
310,0.402784824371338,0.00026497047571015
311,0.406698703765869,0.000224200698432423
312,0.410349845886231,0.000206800048033763
313,0.414864063262939,0.000236857069103207
314,0.418622970581055,0.00024634350911095
315,0.422867298126221,0.000219278740176359
316,0.425797939300537,0.000315157258192189
317,0.430264472961426,0.000271567866982387
318,0.433858871459961,0.0001904580969282
319,0.436829090118408,0.000155551268223589
320,0.440086364746094,0.000158662862227973
321,0.442562103271484,0.000155603881540914
322,0.444675445556641,0.000164684947724037
323,0.446420669555664,0.000174811389730676
324,0.44875431060791,0.000219924824065598
325,0.450088977813721,0.000233978896652069
326,0.451136589050293,0.000244780536303033
327,0.451544284820557,0.00020275394082517
328,0.451271057128906,0.000227766498390628
329,0.451300144195557,0.00028571420414871
330,0.450337409973145,0.000287876982799162
331,0.450191974639893,0.000352544902055726
332,0.448384761810303,0.00031173919848784
333,0.44649076461792,0.000252980875115803
334,0.444005012512207,0.000192041688591025
335,0.441454410552979,0.000277674850927306
336,0.438756465911865,0.000293521062463234
337,0.435431480407715,0.000267695548229874
338,0.431613922119141,0.000192249956282565
339,0.42750358581543,0.000253913883864745
340,0.423083305358887,0.000249053284782421
341,0.417703151702881,0.000240552885880841
342,0.412712574005127,0.000190677634236621
343,0.407590389251709,0.000185900456368369
344,0.401843547821045,0.000202156461508072
345,0.395636081695557,0.000214311647932474
346,0.389118194580078,0.000225910127473927
347,0.382445812225342,0.000245292746510144
348,0.375612258911133,0.000214447406373792
349,0.368296146392822,0.000188813064484678
350,0.361037731170654,0.000170096576840336
351,0.353613376617432,0.000174133722630367
352,0.346545219421387,0.000230793125339628
353,0.338222503662109,0.000179082668547007
354,0.330838680267334,0.000185719350284338
355,0.323261737823486,0.000207563879379298
356,0.314256191253662,0.000219278740176359
357,0.306479454040527,0.000229016899948107
358,0.297420501708984,0.000280094650029116
359,0.289590358734131,0.000269631912949712
360,0.280922412872314,0.000335503654630206
361,0.272691249847412,0.000287111410065659
362,0.264806747436523,0.000239503300271246
363,0.256866455078125,0.00022565232188803
364,0.24880838394165,0.000292440773144088
365,0.241904258728027,0.000292440773144088
366,0.235970497131348,0.000258218658459022
367,0.229378700256348,0.000260839950257297
368,0.22252893447876,0.000241334253085083
369,0.215939044952393,0.000202883984613964
370,0.209476470947266,0.000176977904100077
371,0.202802181243896,0.000221659023680917
372,0.195850372314453,0.000206694470465665
373,0.189221858978271,0.000219062955435981
374,0.183634281158447,0.00024025401295862
375,0.176911354064941,0.000223636118841509
376,0.170815944671631,0.000216977150277567
377,0.165156841278076,0.000220742130419606
378,0.158756732940674,0.00021927044468994
379,0.153022766113281,0.000183903425688942
380,0.147566795349121,0.000256309619988135
381,0.142469882965088,0.000257131536066825
382,0.136902809143066,0.000215441761527981
383,0.131922721862793,0.000184953817811591
384,0.127383232116699,0.000219008976030894
385,0.122314453125,0.000235095710353764
386,0.117351531982422,0.000208132728434152
387,0.112885475158691,0.000184056672390973
388,0.108331680297852,0.00024802133708436
389,0.103951930999756,0.000254507785068096
390,0.100291728973389,0.000203666969237674
391,0.0961704254150391,0.000216830392504025
392,0.0920333862304688,0.000180292375438798
393,0.0881690979003906,0.000187241025856896
394,0.0852489471435547,0.000206425884441524
395,0.0816645622253418,0.000170617106175337
396,0.0778865814208984,0.000201069287767203
397,0.0749740600585938,0.000208848143174954
398,0.0714602470397949,0.000189793169419815
399,0.0686421394348145,0.000157448712558168
400,0.066065788269043,0.000170123309395915
401,0.0633754730224609,0.000146422397893537
402,0.0603928565979004,0.000167086353020292
403,0.0574827194213867,0.000168274204930519
404,0.0550384521484375,0.000253268320811429
405,0.0525474548339844,0.000226444940959072
406,0.0508360862731934,0.000236883946501206
407,0.0486650466918945,0.000244854836057758
408,0.0464892387390137,0.000210746919945178
409,0.0441274642944336,0.000206681269477597
410,0.0419797897338867,0.000234894456251646
411,0.0405669212341309,0.000178385539283966
412,0.038536548614502,0.000223981534394679
413,0.0366473197937012,0.000213848573982962
414,0.0350446701049805,0.000136295375136914
415,0.033454418182373,0.000141356282484901
416,0.0319094657897949,0.00021012022939942
417,0.0300407409667969,0.000229270922237575
418,0.0294160842895508,0.0002847576331396
419,0.0277934074401855,0.000259104729609613
420,0.0262489318847656,0.000224431806064979
421,0.025078296661377,0.000215977230893745
422,0.024022102355957,0.00018107761592289
423,0.0227217674255371,0.000216423143728451
424,0.0220131874084473,0.000275524415919139
425,0.0209717750549316,0.000208978746741702
426,0.0196771621704102,0.000167048245844717
427,0.0190525054931641,0.000177054972764702
428,0.0179738998413086,0.000133568888855069
429,0.0172486305236816,0.00017271249876239
430,0.0157570838928223,0.000210777126824056
431,0.0157742500305176,0.000221560526794581
432,0.014920711517334,0.000213520843035225
433,0.0139102935791016,0.000159938888273194
434,0.0133466720581055,0.000158194994276001
435,0.0129518508911133,0.000210725340952059
436,0.0119948387145996,0.000205591480295743
437,0.0115785598754883,0.000194535535419037
438,0.0107274055480957,0.000186066722757425
439,0.010401725769043,0.000176931646787747
440,0.00972652435302734,0.000166666694877977
441,0.00922775268554688,0.000179082668547007
442,0.00896072387695313,0.000158410442574399
443,0.00862932205200195,0.000221018009293867
444,0.00798702239990234,0.000190362566954327
445,0.00776052474975586,0.000203961485724864
446,0.00727701187133789,0.000236264992785675
447,0.00679397583007813,0.000213780515398597
448,0.00665998458862305,0.000199716798594794
449,0.00629377365112305,0.000235149864721183
450,0.00596857070922852,0.000212093394403713
451,0.0056610107421875,0.000171027071259842
452,0.00548791885375977,0.000198556733284099
453,0.0052027702331543,0.00018028733081379
454,0.00478363037109375,0.000180196503414181
455,0.00462245941162109,0.000204935712696617
456,0.00432729721069336,0.000186944492859048
457,0.00416088104248047,0.000176504480154272
458,0.00401020050048828,0.000177690793421463
459,0.00372791290283203,0.000163865559453913
460,0.00365972518920898,0.000198263362754257
461,0.00348520278930664,0.000185988498265972
462,0.00349569320678711,0.000197025513223725
463,0.00317096710205078,0.000198382596855465
464,0.00293779373168945,0.000193094911361959
465,0.00276994705200195,0.000190123532018694
466,0.00278663635253906,0.000185552772629018
467,0.00275230407714844,0.000212136271871937
468,0.00242042541503906,0.000165459058434608
469,0.00242424011230469,0.000206342155093907
470,0.00239753723144531,0.000181899470176521
471,0.00226736068725586,0.00019511906164241
472,0.00181674957275391,0.000183675791729789
473,0.0018925666809082,0.000199073660073485
474,0.00193595886230469,0.000163982073266008
475,0.00180530548095703,0.000159657157705472
476,0.00176000595092773,0.000179260332486139
477,0.00178432464599609,0.000178767516151277
478,0.00154829025268555,0.000143130598257099
479,0.00154018402099609,0.000179574619994199
480,0.00157976150512695,0.000188258305364431
481,0.0015254020690918,0.000170123309395915
482,0.00145769119262695,0.000187027180458314
483,0.00120639801025391,0.000192948843278142
484,0.00133275985717773,0.000189178795098089
485,0.000962734222412109,0.000198396350025218
486,0.00111055374145508,0.000176024616176261
487,0.00149059295654297,0.000143076576515882
488,0.00137758255004883,0.000170939304370179
489,0.00114250183105469,0.000201042146195242
490,0.00114154815673828,0.000184352917025608
491,0.00107097625732422,0.000155261576284963
492,0.000986099243164063,0.000223066033124716
493,0.000989913940429688,0.000210081269746337
494,0.00105047225952148,0.00019947529471733
495,0.000905990600585938,0.000201137125673664
496,0.000918388366699219,0.000222968157790102
497,0.000903606414794922,0.000197371419071602
498,0.000954627990722656,0.00020105571743922
499,0.000712394714355469,0.000223489664262054
500,0.000872135162353516,0.000187036906007862
501,0.000733375549316406,0.000167284914080294
502,0.000774383544921875,0.000218730563232629
503,0.000895500183105469,0.000175719506956942
504,0.000807285308837891,0.000168800354003906
505,0.000729084014892578,0.00020592299768472
506,0.000781059265136719,0.000196567985465897
507,0.000880241394042969,0.000189077808685446
508,0.000778675079345703,0.000183150166777945
509,0.000831127166748047,0.000208032199164367
510,0.000806808471679688,0.000190811141973874
511,0.000848293304443359,0.000193551251006101
512,0.000893115997314453,0.000174321648040733
513,0.000810146331787109,0.000211397567787131
514,0.000716686248779297,0.000210310594922417
515,0.000792503356933594,0.000176638402503595
516,0.000883579254150391,0.000158920603993102
517,0.000700950622558594,0.000184461420851973
518,0.000872135162353516,0.000181303495585378
519,0.00080108642578125,0.000205485281771007
520,0.000916957855224609,0.000180710588405491
521,0.000725746154785156,0.000165643098748743
522,0.000593185424804688,0.000182259113592584
523,0.000745773315429688,0.000198959411438527
524,0.000819206237792969,0.000193485454012381
525,0.000913619995117188,0.000188340416157945
526,0.000753879547119141,0.000187643752585683
527,0.00083160400390625,0.000187075803150013
528,0.000841140747070313,0.000160574514775112
529,0.00087738037109375,0.000182583183231055
530,0.000840663909912109,0.000204975650366335
531,0.000772476196289063,0.000203899048078808
532,0.000856876373291016,0.000217052587065526
533,0.000800132751464844,0.000209877696281111
534,0.000879764556884766,0.000194652380606712
535,0.000895023345947266,0.000185890671361316
536,0.000924110412597656,0.000198817651953882
537,0.000815391540527344,0.000201439856071982
538,0.000863552093505859,0.000209582814459643
539,0.000938892364501953,0.000197946585577477
540,0.000923633575439453,0.000218172671780835
541,0.000890254974365234,0.000229960126847863
542,0.000843048095703125,0.000201439856071982
543,0.000993251800537109,0.000193508955506961
544,0.000885963439941406,0.00019357474451241
545,0.000778675079345703,0.000198478849030804
546,0.000967502593994141,0.000221026239191258
547,0.000837326049804688,0.000209882029687322
548,0.000839710235595703,0.000201656458130334
549,0.000923633575439453,0.000199201540752959
550,0.000864982604980469,0.000207607692335855
551,0.000927448272705078,0.00017375726206422
552,0.000939369201660156,0.000203304934068931
553,0.000833034515380859,0.000241356863686443
554,0.000855445861816406,0.000250611384668836
555,0.000899791717529297,0.000208848143174954
556,0.000918388366699219,0.000195263506287593
557,0.000924110412597656,0.00021019812704239
558,0.000848293304443359,0.000184776706065878
559,0.00102329254150391,0.0002007070983571
560,0.000859737396240234,0.000188702243134028
561,0.000805854797363281,0.000172409440977125
562,0.000916004180908203,0.00017786984762987
563,0.000949382781982422,0.000207616453817673
564,0.000696182250976563,0.000219614444049153
565,0.000875473022460938,0.000214718665751893
566,0.000906467437744141,0.000204624820293683
567,0.000890731811523438,0.000192122182417212
568,0.00092315673828125,0.000210063952025613
569,0.000877857208251953,0.000211780125892942
570,0.000839710235595703,0.000227926166477808
571,0.000902175903320313,0.000217475385921248
572,0.000922203063964844,0.000204135318467511
573,0.000844955444335938,0.00022586583808059
574,0.000853061676025391,0.000220997433209543
575,0.000876903533935547,0.000187333292723451
576,0.000908851623535156,0.000199402330407919
577,0.000919342041015625,0.000200679907799723
578,0.000824928283691406,0.000203738406268716
579,0.000992298126220703,0.000191339488149121
580,0.000925540924072266,0.000208778454532955
581,0.000861644744873047,0.000221420914535577
582,0.000802040100097656,0.000196359665886255
583,0.00113010406494141,0.000200625515629649
584,0.000856399536132813,0.000200734285231367
585,0.000772476196289063,0.000208503829088931
586,0.00100946426391602,0.000218389336188772
587,0.000884532928466797,0.000208346737738363
588,0.000839710235595703,0.000205241702895184
589,0.000985622406005859,0.000210971210631602
590,0.000918865203857422,0.000212761298869513
591,0.000954151153564453,0.000212500381042072
592,0.000841617584228516,0.00022935024650464
593,0.000811576843261719,0.000220507155770928
594,0.00092315673828125,0.000199165011794553
595,0.000884056091308594,0.000205755095631011
596,0.000960350036621094,0.000203336246504644
597,0.000833511352539063,0.000205989237137561
598,0.000845432281494141,0.000190109180365001
599,0.000730037689208984,0.000212662957612182
600,0.000870227813720703,0.000209391787286582
601,0.000784873962402344,0.000207603311456286
602,0.000844001770019531,0.000215758144262379
603,0.000713825225830078,0.000218655705351585
604,0.000792503356933594,0.000199397769252079
605,0.000823020935058594,0.000218813708620219
606,0.000815391540527344,0.000211100500703977
607,0.000881671905517578,0.000204032819638289
608,0.000897884368896484,0.000191638712314581
609,0.000870704650878906,0.000186335368985288
610,0.00074005126953125,0.000194287591220808
611,0.000754833221435547,0.000198575054551339
612,0.000821590423583984,0.00019928827019426
613,0.000776290893554688,0.000227874286620987
614,0.000839710235595703,0.000202785338340722
615,0.000864505767822266,0.000197597083852753
616,0.000746250152587891,0.000200448639144606
617,0.000806331634521484,0.000210785756565787
618,0.000845432281494141,0.000223518149056828
619,0.000705718994140625,0.000210362482894321
620,0.000750064849853516,0.000201164254430763
621,0.0009002685546875,0.000201051193793014
622,0.000627040863037109,0.000213772006552033
623,0.000762462615966797,0.0002305881160317
624,0.000719547271728516,0.000211548094520936
625,0.000722885131835938,0.000225902075502814
626,0.000729084014892578,0.000197601686573054
627,0.000891208648681641,0.000177747087037138
628,0.000936031341552734,0.000186905568389757
629,0.000751018524169922,0.000197781109116249
630,0.0006561279296875,0.000231689870922407
631,0.000672340393066406,0.000211384660508051
632,0.000820636749267578,0.000207677773840813
633,0.0006561279296875,0.000209048368614034
634,0.000754833221435547,0.000220593754498306
635,0.000762462615966797,0.0002228865621796
636,0.000761508941650391,0.000212286274810334
637,0.000726699829101563,0.000196072285252
638,0.000740528106689453,0.000201624884822897
639,0.000720500946044922,0.000224925659454009
640,0.000743865966796875,0.00020695391877394
641,0.00087738037109375,0.000178201899560873
642,0.000704765319824219,0.000197896038005672
643,0.000820159912109375,0.000231528870170647
644,0.000779151916503906,0.000223501872475772
645,0.000705242156982422,0.000208752315294341
646,0.000761032104492188,0.000194960515429392
647,0.000722408294677734,0.00021640633351104
648,0.000749588012695313,0.000209426532460187
649,0.000788688659667969,0.000211921797778207
650,0.00081634521484375,0.000215960385966769
651,0.000585079193115234,0.000232465817250502
652,0.000784873962402344,0.000221617988631658
653,0.000764846801757813,0.000212106258554291
654,0.000813484191894531,0.000222959999572804
655,0.000727653503417969,0.000222849834407856
656,0.000386238098144531,0.000243864797704647
657,0.00161552429199219,0.000206685669900635
658,0.00109958648681641,0.000214943043294407
659,0.000741481781005859,0.000237968019093301
660,0.000813007354736328,0.000227042596679755
661,0.000782489776611328,0.000219336799796525
662,0.000693321228027344,0.000210327892335361
663,0.000720024108886719,0.000227802433467599
664,0.000790596008300781,0.000237489798593006
665,0.000638484954833984,0.000208473292819299
666,0.000731468200683594,0.000217876493602078
667,0.000794410705566406,0.000206738467671396
668,0.000690460205078125,0.000228500047788573
669,0.00083160400390625,0.000222760029917243
670,0.000780105590820313,0.00019516566836985
671,0.000723838806152344,0.000219771758040821
672,0.000763416290283203,0.000244025113674557
673,0.000691890716552734,0.000230094557909581
674,0.000713348388671875,0.000213320552006849
675,0.000779628753662109,0.000213312024812713
676,0.000761508941650391,0.000233597652207748
677,0.000713348388671875,0.000223355329870699
678,0.000706672668457031,0.00021074260432332
679,0.000622272491455078,0.000214833000575259
680,0.000662803649902344,0.000218618266798928
681,0.000699520111083984,0.00020583906377749
682,0.000690460205078125,0.000204771442663617
683,0.000669956207275391,0.000212187713396811
684,0.000704765319824219,0.000214566124548461
685,0.000783920288085938,0.000234557356524258
686,0.000702857971191406,0.000219809000127349
687,0.000794887542724609,0.000221367510108248
688,0.000744819641113281,0.000235377949802439
689,0.000748157501220703,0.000235432039248802
690,0.000650882720947266,0.00021309446607108
691,0.000782012939453125,0.000201913371280045
692,0.000762939453125,0.000226505179029114
693,0.000677108764648438,0.000227230792827585
694,0.000673770904541016,0.000218555854959583
695,0.000731468200683594,0.000210988453885462
696,0.000737667083740234,0.000221818987838993
697,0.000696659088134766,0.000230528944850741
698,0.000744342803955078,0.000207795982784489
699,0.000721454620361328,0.000191719375331371
700,0.000712871551513672,0.000206425884441524
701,0.000679969787597656,0.000226268150105581
702,0.000713825225830078,0.000213640076094755
703,0.000696659088134766,0.000206980285129555
704,0.000598907470703125,0.000202129465919849
705,0.000678539276123047,0.000205825807926467
706,0.000695228576660156,0.000211530896887014
707,0.000555515289306641,0.000212311978958489
708,0.000738620758056641,0.000208246311779913
709,0.000669956207275391,0.000228492087085249
710,0.000695705413818359,0.000214761019080067
711,0.00066375732421875,0.000220494781747718
712,0.000563144683837891,0.00022222453356204
713,0.000645637512207031,0.000219730370541529
714,0.000687122344970703,0.000235964543189308
715,0.000619411468505859,0.00023176444310271
716,0.000589847564697266,0.000219953770520328
717,0.000649929046630859,0.000202295881324793
718,0.000668048858642578,0.000229560323248873
719,0.000660896301269531,0.000223412330083409
720,0.000630855560302734,0.000204940150599812
721,0.000654220581054688,0.000215437539952711
722,0.000715732574462891,0.000228388572691545
723,0.000649452209472656,0.000220775089304511
724,0.000696659088134766,0.000219054651777906
725,0.000639915466308594,0.000214494053493064
726,0.000690460205078125,0.000221408591580275
727,0.000639438629150391,0.000218743037055523
728,0.000595569610595703,0.00021115219456665
729,0.000682353973388672,0.000230919194448939
730,0.000749111175537109,0.000232876254859348
731,0.000702381134033203,0.000222788607999951
732,0.000725269317626953,0.000230406609589408
733,0.000652313232421875,0.00021389960371022
734,0.00069427490234375,0.000214477092078085
735,0.000665664672851563,0.000221909173160537
736,0.0007476806640625,0.000218817865060277
737,0.00072479248046875,0.000210150526358346
738,0.000693321228027344,0.000215888780364
739,0.00069427490234375,0.000219871056253519
740,0.000691890716552734,0.000216217128508664
741,0.000729084014892578,0.000212637295891241
742,0.000652790069580078,0.000225256985267742
743,0.000632286071777344,0.000232544051693469
744,0.000678539276123047,0.000217207569296673
745,0.000607967376708984,0.000220919226611309
746,0.000628471374511719,0.000223090495248942
747,0.000717639923095703,0.000236595815484383
748,0.000638008117675781,0.000233426278690331
749,0.000688076019287109,0.00023037502865384
750,0.000669956207275391,0.00023783039017893
751,0.000694751739501953,0.000234305183870134
752,0.000682830810546875,0.000243413109428599
753,0.000672340393066406,0.000250030053835662
754,0.000730514526367188,0.00023072218119368
755,0.000651836395263672,0.000235760173066086
756,0.000652790069580078,0.000215791864375777
757,0.000682353973388672,0.00023765824195576
758,0.000668525695800781,0.000234398325365397
759,0.000638008117675781,0.000222951841056982
760,0.000718593597412109,0.000215673820913607
761,0.000744342803955078,0.000231760518849319
762,0.000720977783203125,0.00023822776788324
763,0.000666141510009766,0.000222040286420521
764,0.000744342803955078,0.000234208122090864
765,0.000657558441162109,0.000235713875983804
766,0.000704288482666016,0.00024236840511525
767,0.000703811645507813,0.000226681785022015
768,0.000711917877197266,0.000218468448430522
769,0.000694751739501953,0.000239602012857386
770,0.0006256103515625,0.000207905375583365
771,0.000727176666259766,0.000207949116589842
772,0.000651836395263672,0.000204495883546636
773,0.000686168670654297,0.000225135825069679
774,0.000676155090332031,0.000217721987535492
775,0.000711441040039063,0.000226268150105581
776,0.00064849853515625,0.000232140862558597
777,0.000664710998535156,0.000235304522809342
778,0.000689983367919922,0.000226681785022015
779,0.000670433044433594,0.000218510074947759
780,0.000594139099121094,0.000207094500546983
781,0.000672817230224609,0.000229782082453627
782,0.000669002532958984,0.000238185768901485
783,0.000636577606201172,0.000225079261323996
784,0.000649452209472656,0.000225466842043117
785,0.000669956207275391,0.000225753062235151
786,0.000628948211669922,0.000234700779946678
787,0.000576496124267578,0.000222670189207835
788,0.000659942626953125,0.000239431138413848
789,0.000593662261962891,0.000239366554101217
790,0.000688076019287109,0.000230019444354034
791,0.000596523284912109,0.000223477455381421
792,0.000722885131835938,0.000233406796465309
793,0.000586986541748047,0.0002353431714509
794,0.000683307647705078,0.000218851113738921
795,0.000648975372314453,0.000232360158968891
796,0.000698566436767578,0.000221355184179894
797,0.000711441040039063,0.00022879439909063
798,0.000725746154785156,0.000237144882697112
799,0.000690937042236328,0.00022172466396329
800,0.000669002532958984,0.000236072440885924
801,0.000696659088134766,0.000233301564337453
802,0.000726222991943359,0.000244839977910588
803,0.000708103179931641,0.000236668841851621
804,0.0006561279296875,0.000230367132743476
805,0.000753879547119141,0.000246587059234119
806,0.000636100769042969,0.000247727803237404
807,0.000672817230224609,0.000252433826546718
808,0.000721454620361328,0.00023958682895288
809,0.000688076019287109,0.000237351892381794
810,0.000689983367919922,0.000243450470806147
811,0.000658988952636719,0.00023332105534932
812,0.000669479370117188,0.000231725197578239
813,0.000680923461914063,0.000239453928718183
814,0.000634193420410156,0.000238586366740776
815,0.000671863555908203,0.000239134666806539
816,0.000741481781005859,0.000248936399507987
817,0.000675201416015625,0.000241251329416558
818,0.000658512115478516,0.000252419414521554
819,0.000651836395263672,0.000235377949802439
820,0.000638008117675781,0.000238433837402375
821,0.000684261322021484,0.000247345688458201
822,0.000665664672851563,0.00024802133708436
823,0.000672817230224609,0.000238151400589121
824,0.000605106353759766,0.000221042698066788
825,0.000687122344970703,0.000230023398310567
826,0.000651359558105469,0.000244237463342303
827,0.000572681427001953,0.000242645933437946
828,0.000656604766845703,0.000242612196950896
829,0.000592231750488281,0.000228380608102514
830,0.000732898712158203,0.000230406609589408
831,0.000603675842285156,0.000226107311195503
832,0.000687122344970703,0.000234526334522202
833,0.000695228576660156,0.000236341969620476
834,0.000701427459716797,0.000221552316744116
835,0.000655174255371094,0.000217726164816745
836,0.000704765319824219,0.000240019193815205
837,0.000571250915527344,0.000266510596843087
838,0.000712394714355469,0.000239488110108215
839,0.000710487365722656,0.000241571558848632
840,0.000627994537353516,0.00025072023414104
841,0.000618934631347656,0.000254679257403578
842,0.000592231750488281,0.000256855495690881
843,0.000667572021484375,0.000231371688299054
844,0.000685691833496094,0.000237738593305708
845,0.000635623931884766,0.000225745004661766
846,0.000630378723144531,0.000222866158609205
847,0.000627517700195313,0.000236657312870693
848,0.000666618347167969,0.000228197345831872
849,0.000668048858642578,0.000230686700939039
850,0.000635623931884766,0.000239647558798652
851,0.00058746337890625,0.000240235084439603
852,0.000553131103515625,0.000234793764511037
853,0.000714778900146484,0.000244092191421898
854,0.000636100769042969,0.000238605426052263
855,0.000641345977783203,0.000256657129766562
856,0.000708580017089844,0.000242870723592172
857,0.000699520111083984,0.000249447368229245
858,0.000564098358154297,0.000261125710686098
859,0.000680923461914063,0.000248629314221196
860,0.000631332397460938,0.000241699531824699
861,0.000659942626953125,0.000254107232968821
862,0.000553131103515625,0.000264324389699847
863,0.000641822814941406,0.00022884607035623
864,0.000593185424804688,0.000229465217983994
865,0.000575065612792969,0.000254679257403578
866,0.000624656677246094,0.000221396267939074
867,0.000546455383300781,0.000200611915282847
868,0.000638484954833984,0.00021466783072792
869,0.000518321990966797,0.000208761028737538
870,0.000630378723144531,0.000208922161886877
871,0.000516891479492188,0.000250306354325521
872,0.000691413879394531,0.000243166380367569
873,0.000624179840087891,0.000224123609597291
874,0.000582218170166016,0.000221548211604791
875,0.000501155853271484,0.0002381437625128
876,0.0005950927734375,0.000245907469857014
877,0.000482082366943359,0.000242567207669334
878,0.000594139099121094,0.000260637637851527
879,0.000535964965820313,0.000262210147544343
880,0.000601291656494141,0.000247279493265409
881,0.000631809234619141,0.000229421614894942
882,0.000659465789794922,0.000244943966013773
883,0.000510215759277344,0.000239905489136023
884,0.000625133514404297,0.000218189345912219
885,0.000474929809570313,0.000255043253333233
886,0.000530719757080078,0.000247940649918959
887,0.000493049621582031,0.00023970447905537
888,0.000647068023681641,0.000228141541138525
889,0.000449180603027344,0.000252231983258309
890,0.000583171844482422,0.000262702223002642
891,0.000605583190917969,0.000266360400014534
892,0.000551700592041016,0.000239043370799086
893,0.000526905059814453,0.000238959652150968
894,0.000678062438964844,0.000238620672405381
895,0.000476360321044922,0.000254171649985467
896,0.000544071197509766,0.000251003021856738
897,0.000681400299072266,0.000253541092372244
898,0.000514030456542969,0.000265731384382143
899,0.000570774078369141,0.000238082649080726
900,0.000582695007324219,0.000270184534611258
901,0.000627040863037109,0.000278159186922213
902,0.000596523284912109,0.000257682729702706
903,0.000653266906738281,0.000266531071670978
904,0.000596046447753906,0.000254993323871724
905,0.000634193420410156,0.000240272939986463
906,0.000505447387695313,0.000247867275157825
907,0.000542163848876953,0.000251892811279891
908,0.000617504119873047,0.000267130968442642
909,0.000546932220458984,0.000247661710176536
910,0.000683784484863281,0.000241579088547344
911,0.000646114349365234,0.00023394779794495
912,0.000543594360351563,0.000256791751926234
913,0.000572681427001953,0.000280859919664892
914,0.000656604766845703,0.000228981155463085
915,0.000700950622558594,0.000237374882314115
916,0.000560760498046875,0.000237171727478745
917,0.000577449798583984,0.000249425491039058
918,0.000538349151611328,0.000244088465363976
919,0.000643730163574219,0.0002321878720827
920,0.000550746917724609,0.000241752206889468
921,0.000595569610595703,0.000246675563296035
922,0.000627040863037109,0.000247478025726304
923,0.000485420227050781,0.000258922137827352
924,0.000504493713378906,0.000234320710023744
925,0.000638008117675781,0.000235289061575157
926,0.000565052032470703,0.000217604991103388
927,0.000540733337402344,0.00027509495659703
928,0.000524997711181641,0.000268699325279283
929,0.000617027282714844,0.000240091178926607
930,0.000438213348388672,0.000220003384153407
931,0.000624656677246094,0.000244364040193322
932,0.000627040863037109,0.000252116571683629
933,0.000621795654296875,0.000270601621261111
934,0.00041961669921875,0.000287895938078276
935,0.000588417053222656,0.000266824371553246
936,0.000525951385498047,0.000251842257222327
937,0.000489234924316406,0.000235640553667319
938,0.000597953796386719,0.000277524141877673
939,0.000594139099121094,0.000269598179865676
940,0.000492095947265625,0.000272276940138005
941,0.000559806823730469,0.000240772075397058
942,0.000539779663085938,0.000290819069710479
943,0.000555515289306641,0.000293898844531207
944,0.000411033630371094,0.000274313604558514
945,0.000557899475097656,0.000267307953024388
946,0.000460624694824219,0.000265142042060931
947,0.00042724609375,0.000256245740431326
948,0.000570774078369141,0.000232450167202198
949,0.000502109527587891,0.000251227574768842
950,0.000760078430175781,0.000231964491994551
951,0.000530719757080078,0.000227314830106896
952,0.000688076019287109,0.00028727608539326
953,0.000384807586669922,0.000262022777726355
954,0.000697135925292969,0.000264324389699847
955,0.000543594360351563,0.000264062757305014
956,0.000665187835693359,0.00027325057554697
957,0.000455856323242188,0.000257675670578793
958,0.000567436218261719,0.00029362639484431
959,0.000473976135253906,0.0002913814499928
960,0.000540256500244141,0.000272964180705171
961,0.000458240509033203,0.000242559708644471
962,0.000734806060791016,0.000281384027189789
963,0.000383377075195312,0.000287978063203541
964,0.000710964202880859,0.000269442953283849
965,0.000438690185546875,0.000247727803237404
966,0.000484943389892578,0.000289238587757376
967,0.000680446624755859,0.000241296564041222
968,0.000632762908935547,0.00031169835100974
969,0.00064849853515625,0.000315341898124948
970,0.000630855560302734,0.000293148998601599
971,0.000833988189697266,0.00025602558885037
972,0.000696182250976563,0.000240496166423807
973,0.000488758087158203,0.000272196760423834
974,0.000579357147216797,0.000257173977518969
975,0.000487327575683594,0.000257689788633242
976,0.000601768493652344,0.000316516445685989
977,0.000661373138427734,0.000262909865419201
978,0.000622749328613281,0.000295275803429201
979,0.000562191009521484,0.000308436615539479
980,0.000784397125244141,0.000286604123287373
981,0.00069427490234375,0.000246424719230792
982,0.000590801239013672,0.000247500075058191
983,0.000599384307861328,0.00028689592278464
984,0.000650882720947266,0.000250531531665683
985,0.000411033630371094,0.000261876952961665
986,0.000614643096923828,0.00024933066769971
987,0.00063323974609375,0.000286807145669613
988,0.00049591064453125,0.000272076446548947
989,0.000439643859863281,0.000250335420847634
990,0.000989437103271484,0.000369257966318666
991,0.000254631042480469,0.000276223332687763
992,0.000626087188720703,0.000319997171055012
993,0.0004119873046875,0.000297020177886914
994,0.000625133514404297,0.000296909923130646
995,0.0005035400390625,0.000265998213939731
996,0.000324249267578125,0.000267294342986293
997,0.000967979431152344,0.000357687627250093
998,0.00108766555786133,0.000394742838143205
999,0.000733375549316406,0.000323901270202682
1000,0.000572681427001953,0.000276854791337653
1001,0.000858783721923828,0.000243723035354054
1002,0.000328540802001953,0.000278512089728273
1003,0.000587940216064453,0.000303322409378782
1004,0.000918388366699219,0.0003662109375
1005,0.000452995300292969,0.000327597885843614
1006,0.00101900100708008,0.000336256421982407
1007,0.000287055969238281,0.000372113892989129
1008,0.000879287719726563,0.000283823474584876
1009,0.000490188598632813,0.000376729119158928
1010,0.0007171630859375,0.000348267445260733
1011,0.000570774078369141,0.000319302922111191
1012,0.00102519989013672,0.000368922841703946
1013,0.000621795654296875,0.000382574389324369
1014,0.00111865997314453,0.000494941351024874
1015,0.000725269317626953,0.000497053736277289
1016,0.00103616714477539,0.000336786138740159
1017,0.000619411468505859,0.000380811122747603
1018,0.00119304656982422,0.000492613173137144
1019,0.000388622283935547,0.000348831069630564
1020,0.00120925903320312,0.000304555262088197
1021,0.00116062164306641,0.000436303654648779
1022,0.000880241394042969,0.000322466041999933
1023,0.00112390518188477,0.000360029422265289
1024,0.000618934631347656,0.000456721390829272
1025,0.000841617584228516,0.000433492972609148
1026,0.00169038772583008,0.000420673081016802
1027,0.000279426574707031,0.00055153715734643
1028,0.00129032135009766,0.000523184026366995
1029,0.000293254852294922,0.000314567995118535
1030,0.00134086608886719,0.00035985760186112
1031,0.000498771667480469,0.000526207034317638
1032,0.00135707855224609,0.000471381448064673
1033,0.000453472137451172,0.000679316079393069
1034,0.000746726989746094,0.00064659962606408
1035,0.000423431396484375,0.000374404326089934
1036,0.00203132629394531,0.000424718190298974
1037,0.000819206237792969,0.000638355137944355
1038,0.000975608825683594,0.000586942962404659
1039,0.0017399787902832,0.00050380006491978
1040,0.000723361968994141,0.000621725441180517
1041,0.00128269195556641,0.000495396861441821
1042,0.000680923461914063,0.000410855469294319
1043,0.0013427734375,0.000528896460977852
1044,0.000220298767089844,0.000495998668194553
1045,0.00108671188354492,0.00062543587461364
1046,-0.0000824928283691406,0.000695845117327612
1047,0.00252056121826172,0.000605480305499895
1048,0.00113534927368164,0.000738850829245629
1049,0.00107526779174805,0.000628545898510945
1050,0.000515937805175781,0.000513682663554043
1051,0.00244998931884766,0.000779338076704568
1052,0.00186443328857422,0.000879037370437844
1053,0.00141191482543945,0.00112793831594891
1054,0.00195550918579102,0.000707232939157549
1055,0.000805377960205078,0.00065642727078266
1056,0.00166893005371094,0.00112011880217671
1057,0.000804424285888672,0.000863234889826755
1058,0.000793933868408203,0.000844694919765286
1059,0.00306510925292969,0.000791896606162219
1060,0.00136613845825195,0.000944597921944857
1061,0.00121784210205078,0.000889470925402202
1062,0.00217533111572266,0.0011507494452666
1063,0.00240659713745117,0.00108752998216175
1064,0.00255441665649414,0.00130044814590197
1065,0.00397443771362305,0.00141635759104886
1066,-0.000421047210693359,0.00131112426938007
1067,0.00151777267456055,0.00119958734284034
1068,-0.00163793563842773,0.00136190569240592
1069,0.00379514694213867,0.00116537596698792
1070,-0.000504970550537109,0.00105440330208475
1071,-0.000102996826171875,0.00126709980308426
1072,0.000379085540771484,0.00140302055465044
1073,0.000286579132080078,0.00141232436932268
1074,0.000348091125488281,0.00156519776147489
1075,0.00156450271606445,0.00133912718493133
1076,0.00184869766235352,0.00178785220065926
1077,0.00258350372314453,0.00138796280410972
1078,0.000610828399658203,0.00155841472142479
1079,0.00348186492919922,0.00133856199641195
1080,0.000579357147216797,0.00185703286952043
1081,0.00414371490478516,0.00239193382151483
1082,0.00153303146362305,0.00241686888100871
1083,0.00360345840454102,0.0023001327604612
1084,-0.0012507438659668,0.00148352002316727
1085,0.00273847579956055,0.00217805517938541
1086,0.00366353988647461,0.00180683006118249
1087,0.000808238983154297,0.00186488372942064
1088,0.00177145004272461,0.00262038327578167
1089,0.00444936752319336,0.00286792177677785
1090,0.00147771835327148,0.00173531412997685
1091,-0.00189399719238281,0.00145543574092534
1092,0.00576162338256836,0.00237375955123245
1093,-0.000739097595214844,0.00206304245375434
1094,0.00330829620361328,0.00239912616211972
1095,0.00308370590209961,0.00185358177404676
1096,0.00395488739013672,0.00270382125520306
1097,0.00128555297851562,0.00234270867420792
1098,0.00161552429199219,0.00233858054998876
1099,-0.00287246704101562,0.00272705767979855
1100,0.000815868377685547,0.00264338427904387
