Wavelength (nm),Absorbance (AU),Std.Dev.
190,0.861251354217529,0.159383257483693
191,0.545525074005127,0.114493363633715
192,0.65426778793335,0.187799849758555
193,0.891542911529541,0.163838551580166
194,0.911546230316162,0.157244758263876
195,0.712140560150147,0.142434243540344
196,1.19487619400024,0.234134805305969
197,0.989452362060547,0.162807935771557
198,0.99391508102417,0.140580912142747
199,1.19664001464844,0.111537802818235
200,1.26043510437012,0.102956738618001
201,1.37987804412842,0.114900785024167
202,1.74754762649536,0.0749841673351925
203,1.76581478118896,0.0316037186498871
204,1.7858943939209,0.0098308293756426
205,1.81939077377319,0.00526982996428338
206,1.8049488067627,0.00677146480745625
207,1.827965259552,0.00416416798613668
208,1.84022092819214,0.00553387286613147
209,1.84835958480835,0.00199225098377878
210,1.87683582305908,0.00277927858154968
211,1.88902711868286,0.0024830602639884
212,1.91140651702881,0.00302632222322221
213,1.91708612442017,0.00331449560116833
214,1.94037437438965,0.0028276969364416
215,1.94885635375977,0.00420168427233782
216,1.94869136810303,0.00416483888670538
217,1.95678615570068,0.00392563302438757
218,1.94656562805176,0.00453717469239399
219,1.91831541061401,0.00532957852022066
220,1.91341924667358,0.00405746092420837
221,1.88734865188599,0.00270524172511967
222,1.84552526473999,0.00264883964152407
223,1.79756450653076,0.00295611226404158
224,1.75814533233643,0.00365587339336399
225,1.71350049972534,0.00244959411908331
226,1.66508340835571,0.00135406170875382
227,1.61059045791626,0.00112478598406729
228,1.55503225326538,0.000764539947218613
229,1.50550174713135,0.00057997199975835
230,1.4520788192749,0.000643441170708143
231,1.4013934135437,0.000636574570152101
232,1.35681772232056,0.000601743555534625
233,1.31285190582275,0.000744423290693317
234,1.27509117126465,0.000646385790404515
235,1.23982524871826,0.000427118350414052
236,1.20757627487183,0.000339973858818749
237,1.178870677948,0.000361773306870382
238,1.15297603607178,0.000533730542980734
239,1.13002967834473,0.000545368311650567
240,1.11013412475586,0.000367668351254108
241,1.09314155578613,0.000360927617569424
242,1.07882261276245,0.000506493547403004
243,1.06819772720337,0.000510314682256795
244,1.0589017868042,0.000468105479041581
245,1.05356216430664,0.000465127212384021
246,1.05148267745972,0.000384840378906247
247,1.05266523361206,0.000550493991457436
248,1.05554151535034,0.0006929111711069
249,1.06145620346069,0.000652045479416271
250,1.07143402099609,0.000644119286371684
251,1.08377552032471,0.000789153827915184
252,1.09652376174927,0.000738929606389391
253,1.11326026916504,0.000776363528740857
254,1.12845039367676,0.00061042308388327
255,1.14512491226196,0.000970478777413684
256,1.16264343261719,0.00106163785645929
257,1.17912864685059,0.00104291339613079
258,1.19518375396729,0.000766270043434169
259,1.20761680603027,0.00102045825673662
260,1.21555328369141,0.00106152819445543
261,1.21793985366821,0.00147758348175064
262,1.21666955947876,0.00149555594287238
263,1.21372318267822,0.000836889287744381
264,1.2103271484375,0.00116167396915737
265,1.19787979125977,0.0014273698004698
266,1.17584466934204,0.00127170816259855
267,1.1469669342041,0.000746239031382802
268,1.10709524154663,0.00078823129384106
269,1.06261396408081,0.000480788075354004
270,1.02003192901611,0.000484819358860798
271,0.978652477264404,0.000764901499326363
272,0.941957473754883,0.000948318702290043
273,0.900516033172607,0.000566967201339393
274,0.849724292755127,0.000457175194455072
275,0.792106151580811,0.000432442669725991
276,0.732441425323486,0.000378184477235652
277,0.676196575164795,0.000295312762954131
278,0.627905368804932,0.000274459449062409
279,0.584895133972168,0.000294757883475513
280,0.550004959106445,0.000270756183570579
281,0.52074146270752,0.000232332758237454
282,0.495800495147705,0.000278779736092673
283,0.474558830261231,0.000231654538879362
284,0.456373691558838,0.000213230999460754
285,0.440796852111816,0.000217337334186464
286,0.427317142486572,0.000277005864557374
287,0.415567874908447,0.000212359095149487
288,0.405918121337891,0.000206081936602868
289,0.397947311401367,0.000227194767335035
290,0.391311645507812,0.000211238322892375
291,0.385995388031006,0.000218064258849303
292,0.381374359130859,0.000258472131599196
293,0.378289699554443,0.000286566040577877
294,0.375683784484863,0.0002550646486819
295,0.37394380569458,0.000236768736170719
296,0.372910022735596,0.000168654815519594
297,0.372391700744629,0.000203617841740405
298,0.372945785522461,0.000227234795307533
299,0.373555660247803,0.000220812162169675
300,0.37466287612915,0.000221318202276005
301,0.376277446746826,0.000268523257757234
302,0.378494262695312,0.000262106069737272
303,0.380323886871338,0.000222968157790102
304,0.383533954620361,0.000241168377235447
305,0.386171817779541,0.000245225997156146
306,0.389767169952393,0.000297674738270369
307,0.393117427825928,0.000223037490588852
308,0.396750450134277,0.000302980394150092
309,0.400386333465576,0.000271440573201628
310,0.404163360595703,0.000260714395520657
311,0.408054351806641,0.000251582104462503
312,0.412474632263184,0.000193513655463377
313,0.415831089019775,0.000254014157327064
314,0.419909954071045,0.000307207497000925
315,0.423516273498535,0.000307692639619076
316,0.426783084869385,0.000293601614154347
317,0.430640697479248,0.000326022739708135
318,0.433919429779053,0.0002797112300665
319,0.437299251556397,0.000209994666861238
320,0.439841270446777,0.000216044597467714
321,0.442740917205811,0.000279990723621372
322,0.444578170776367,0.000259707772474141
323,0.446402072906494,0.000267130968442642
324,0.448328971862793,0.000268130075123524
325,0.449356079101563,0.000246025794160677
326,0.449924468994141,0.000224573596405972
327,0.450430393218994,0.000254300435066207
328,0.450619220733643,0.000293471481202329
329,0.450123310089111,0.000282776898242901
330,0.449169635772705,0.000290775283433132
331,0.447978496551514,0.000279457494177268
332,0.446435451507568,0.000249964569512962
333,0.444238185882568,0.000247478025726304
334,0.442108154296875,0.000181654305673511
335,0.439466953277588,0.000190539259748147
336,0.436038017272949,0.000254200274530857
337,0.432769298553467,0.00022960389999642
338,0.429088115692139,0.000205294872025965
339,0.425002574920654,0.00033810141980837
340,0.419798374176025,0.000281157680847057
341,0.415246963500977,0.000179792270941811
342,0.409448146820068,0.00020496233867443
343,0.404069423675537,0.0002539783499209
344,0.398517608642578,0.000247918639770822
345,0.392190933227539,0.000234956398951408
346,0.385204792022705,0.000207103283739325
347,0.379042148590088,0.00021004230286683
348,0.372158050537109,0.000234828624230302
349,0.364807605743408,0.000273057458516234
350,0.357579708099365,0.000186428084079493
351,0.350306987762451,0.000222706946605814
352,0.342413902282715,0.000264269330721027
353,0.334561824798584,0.000207441153871849
354,0.326892375946045,0.00019805682640966
355,0.31928825378418,0.000224788137233931
356,0.310325145721436,0.000209786674073431
357,0.302247524261475,0.000273217289245602
358,0.293862819671631,0.00026230031490587
359,0.285240173339844,0.00032632945873946
360,0.276927947998047,0.000315946989996407
361,0.269523620605469,0.000229405757171412
362,0.261214256286621,0.000176767078309596
363,0.253668308258057,0.000192055895835309
364,0.245175361633301,0.000269908365213106
365,0.238723754882812,0.000269908365213106
366,0.232452392578125,0.000347200325103233
367,0.226047515869141,0.000270224925970838
368,0.219337940216064,0.000199320213633352
369,0.212787628173828,0.000234758899615398
370,0.206661224365234,0.000231866450378664
371,0.199617385864258,0.000236772577418254
372,0.193127155303955,0.000238849250916574
373,0.186633110046387,0.000241077851393888
374,0.180435180664062,0.000218788768321669
375,0.17399787902832,0.000218468448430522
376,0.168342113494873,0.000254964788360906
377,0.162378311157227,0.000238113207757412
378,0.156349658966064,0.000240106330936905
379,0.150503158569336,0.000229068521023923
380,0.145187377929687,0.000256494071563938
381,0.139862537384033,0.000250785521147058
382,0.134746074676514,0.000220003384153407
383,0.129634380340576,0.000199466175638273
384,0.124966144561768,0.000218376842162263
385,0.120240688323975,0.00021302616656097
386,0.115505218505859,0.000210336540508401
387,0.110908985137939,0.000195300764983021
388,0.10627555847168,0.000219531601932267
389,0.102455615997314,0.000231355964238531
390,0.0985040664672852,0.000172975595674436
391,0.0947327613830566,0.000206830831339507
392,0.0904102325439453,0.000201335985005213
393,0.0867557525634766,0.000186193767463308
394,0.0834970474243164,0.000208429661816368
395,0.0800051689147949,0.000168851532155257
396,0.0767779350280762,0.000185469427697547
397,0.0733847618103027,0.000219945500493422
398,0.0702834129333496,0.000198240424897669
399,0.0670919418334961,0.000171053658396238
400,0.0648174285888672,0.000184880041870479
401,0.0620565414428711,0.000196535594700543
402,0.0593714714050293,0.00022050303117368
403,0.0569615364074707,0.000183705499111993
404,0.0539884567260742,0.000280211521164745
405,0.0515027046203613,0.00024731627055985
406,0.049710750579834,0.000285013032655615
407,0.0477452278137207,0.000264936149107719
408,0.0455083847045898,0.000192358733742271
409,0.0431203842163086,0.000207673394439616
410,0.041473388671875,0.000237899214588711
411,0.0394582748413086,0.000191182564777363
412,0.0374445915222168,0.000216515576594812
413,0.0357799530029297,0.000209877696281111
414,0.0344734191894531,0.000145809286908084
415,0.0325751304626465,0.000134957552206998
416,0.0312514305114746,0.000199393207991902
417,0.0297451019287109,0.000226713880421988
418,0.0286474227905273,0.000290650143436188
419,0.0272226333618164,0.000261237142156764
420,0.0254025459289551,0.000218722246955485
421,0.024592399597168,0.000203430154893693
422,0.0233912467956543,0.00017495180677394
423,0.022221565246582,0.00021856833875318
424,0.0214476585388184,0.000285580477094254
425,0.02044677734375,0.000218942521570489
426,0.0194587707519531,0.00019868494667627
427,0.0183367729187012,0.000169007664334729
428,0.0177369117736816,0.000187735821523503
429,0.016728401184082,0.000174977797564388
430,0.0157170295715332,0.000230931009899401
431,0.0153498649597168,0.000219941365363359
432,0.0146870613098145,0.000214866865876052
433,0.0136313438415527,0.000166448273062255
434,0.0131878852844238,0.000174441605507169
435,0.0127720832824707,0.000196905457356011
436,0.0117983818054199,0.000231897828205505
437,0.0111708641052246,0.000237696507890919
438,0.0107054710388184,0.000207577024237256
439,0.0102286338806152,0.000173621117366413
440,0.00981283187866211,0.000181929467615668
441,0.00898408889770508,0.000194207994898571
442,0.00877189636230469,0.000158774601696059
443,0.00848817825317383,0.000238940621094643
444,0.00781393051147461,0.000207795982784489
445,0.0076446533203125,0.000211130656995366
446,0.00740528106689453,0.000252901770273518
447,0.00688457489013672,0.000207125240090697
448,0.00649595260620117,0.000187716442341875
449,0.00623893737792969,0.000234568988717304
450,0.00566959381103516,0.00020613488900919
451,0.00571918487548828,0.000183769848632011
452,0.00549507141113281,0.000204162048829486
453,0.00508451461791992,0.000185081626445132
454,0.00485944747924805,0.000184855443346991
455,0.00461483001708984,0.000211199569492344
456,0.00431442260742188,0.000196951641350397
457,0.00428581237792969,0.00017820700321959
458,0.00398159027099609,0.000182508449003688
459,0.0036625862121582,0.000158934910724615
460,0.00388097763061523,0.00019103979531172
461,0.00353431701660156,0.000188499705593576
462,0.00346565246582031,0.000212311978958489
463,0.00320720672607422,0.00020543658910007
464,0.00302886962890625,0.000199228933076434
465,0.00269365310668945,0.000179559425199153
466,0.00299644470214844,0.000177961862501877
467,0.00284242630004883,0.000222902883691205
468,0.0025324821472168,0.000168465967390521
469,0.00252676010131836,0.000205441016183416
470,0.00258779525756836,0.000188523828615596
471,0.00228023529052734,0.000194114310380385
472,0.0020909309387207,0.000178691186100054
473,0.00204086303710937,0.000186154686019321
474,0.00210857391357422,0.000150752955552792
475,0.00194501876831055,0.000152617690037573
476,0.00190973281860352,0.000177752203754529
477,0.00183391571044922,0.000185827056256387
478,0.00172758102416992,0.000151963745586625
479,0.00172853469848633,0.00018662799655758
480,0.00154924392700195,0.00019698396370375
481,0.00166130065917969,0.000182214196985094
482,0.00147390365600586,0.000191724119157853
483,0.00148105621337891,0.000209004857661619
484,0.00145387649536133,0.000201363086970876
485,0.00105571746826172,0.000207392920410137
486,0.0011754035949707,0.000184165350754467
487,0.00171184539794922,0.00014782259537972
488,0.00144767761230469,0.000180095530357158
489,0.00132179260253906,0.000206399447264386
490,0.00136089324951172,0.000190381676783914
491,0.00121498107910156,0.000158226611717825
492,0.00115060806274414,0.000216662547611044
493,0.00106382369995117,0.000212264852309163
494,0.00110006332397461,0.000202735997204547
495,0.00103044509887695,0.000200126231881962
496,0.00106191635131836,0.000219796586799646
497,0.0010371208190918,0.000181654305673511
498,0.00114822387695312,0.000192642211914062
499,0.000982761383056641,0.000227614709963555
500,0.00100326538085937,0.000194320356700497
501,0.00103282928466797,0.000166183051540568
502,0.000858306884765625,0.000210237065040303
503,0.000984668731689453,0.000172765150197556
504,0.00104808807373047,0.000164933279025272
505,0.000930309295654297,0.000205418879812584
506,0.00111055374145508,0.000194086196206817
507,0.000915050506591797,0.000185851526181337
508,0.00101709365844727,0.000182757444247585
509,0.000946521759033203,0.000202354319111851
510,0.000968456268310547,0.000188258305364431
511,0.000982761383056641,0.000188403182618537
512,0.000987052917480469,0.000168967299153872
513,0.000965595245361328,0.000207555115678165
514,0.000833511352539063,0.000208438388747593
515,0.000998973846435547,0.000178125327132473
516,0.00103330612182617,0.000165497531534134
517,0.00100898742675781,0.00019520760491047
518,0.000932216644287109,0.000187197304626191
519,0.000979423522949219,0.000204944588406909
520,0.000914096832275391,0.000190429442967967
521,0.000861167907714844,0.000172259032100043
522,0.000727653503417969,0.000179569555205378
523,0.000828266143798828,0.000201818757116872
524,0.000878334045410156,0.000207629595347187
525,0.00104713439941406,0.000192717735669552
526,0.000896453857421875,0.000179842849689524
527,0.000927448272705078,0.000185430193591085
528,0.000975131988525391,0.000153280711868454
529,0.00105619430541992,0.00017883872813948
530,0.000903129577636719,0.000204469196827048
531,0.000973224639892578,0.000203416742063826
532,0.000957489013671875,0.000209981673347822
533,0.000977993011474609,0.000202910879819837
534,0.000952720642089844,0.000193893973584755
535,0.00113773345947266,0.000191942208436336
536,0.00101757049560547,0.00019720084801645
537,0.000920295715332031,0.000197025513223725
538,0.00105190277099609,0.000212243427645742
539,0.00104570388793945,0.000198465101578041
540,0.00101804733276367,0.00021968069524989
541,0.000938892364501953,0.000226179702858863
542,0.00104236602783203,0.00019333497679795
543,0.00109052658081055,0.000184963652380381
544,0.00107240676879883,0.000192249956282565
545,0.000942707061767578,0.000197518821197504
546,0.00107240676879883,0.000221001548579664
547,0.000887393951416016,0.000208765385322756
548,0.000956535339355469,0.000194918525727706
549,0.00120210647583008,0.000199329339389996
550,0.00101089477539062,0.000208372927854459
551,0.00104331970214844,0.000174170279562657
552,0.0010528564453125,0.000202061961170306
553,0.000921726226806641,0.000240806069681888
554,0.00101757049560547,0.000248285220837184
555,0.000964164733886719,0.000206509579841064
556,0.0010371208190918,0.000198570474393006
557,0.00103187561035156,0.000212581684868883
558,0.000952720642089844,0.000185596881264066
559,0.00100946426391602,0.00020127273289338
560,0.00104427337646484,0.000190577442055979
561,0.000946998596191406,0.000179680947580803
562,0.00112390518188477,0.000182358888666348
563,0.00101804733276367,0.000206267210552084
564,0.000904083251953125,0.000208390386103231
565,0.000979900360107422,0.000212474699685879
566,0.0009918212890625,0.000203635707656184
567,0.00113296508789062,0.000185915132913322
568,0.000920295715332031,0.00020791412452084
569,0.00104093551635742,0.000215568370343114
570,0.000983238220214844,0.000233457446868684
571,0.00101327896118164,0.00022543456910081
572,0.00105190277099609,0.000205927414311122
573,0.00102949142456055,0.000228253136881753
574,0.0009765625,0.00022014802671856
575,0.00111150741577148,0.000184476211883645
576,0.0010371208190918,0.000200512151219257
577,0.00103616714477539,0.000202435205121255
578,0.000988006591796875,0.000204375765866757
579,0.00125503540039062,0.000190123532018694
580,0.00104951858520508,0.000212491820934875
581,0.000988960266113281,0.000224504737996444
582,0.0010066032409668,0.000198744446206676
583,0.00127601623535156,0.000197293066899163
584,0.00104856491088867,0.000201593306570485
585,0.000967502593994141,0.000205059937681083
586,0.00112199783325195,0.000212757024107874
587,0.001068115234375,0.000208569248897816
588,0.00101470947265625,0.000207765342479314
589,0.00109481811523437,0.000208255046394424
590,0.00100898742675781,0.000211419078167824
591,0.00110435485839844,0.00021121248808241
592,0.00100898742675781,0.000229405757171412
593,0.000893592834472656,0.00022282942747445
594,0.00109243392944336,0.000201944899483741
595,0.00100231170654297,0.000202910879819837
596,0.00106287002563477,0.000197311505503587
597,0.00102710723876953,0.000204393565532865
598,0.0010075569152832,0.000191006467081403
599,0.000887870788574219,0.000209365724622365
600,0.000996112823486328,0.000210193800152919
601,0.000937938690185547,0.000207642736044985
602,0.000946998596191406,0.000211758652187372
603,0.00101661682128906,0.000218876046933389
604,0.000982284545898438,0.000206064282776939
605,0.000897884368896484,0.000218643226546327
606,0.000958919525146484,0.000209708623593614
607,0.00103330612182617,0.000202336340051921
608,0.000949859619140625,0.000191434530618795
609,0.00106716156005859,0.000186174227766805
610,0.000936508178710938,0.000187609821061192
611,0.0009002685546875,0.000196734482307115
612,0.000946998596191406,0.000196632750989683
613,0.000925540924072266,0.000224573596405972
614,0.0009613037109375,0.000202610347364647
615,0.000940322875976563,0.000197076284074241
616,0.000892162322998047,0.000196734482307115
617,0.000946998596191406,0.000212692892373453
618,0.00100564956665039,0.000225265060297239
619,0.000838279724121094,0.000210358159385511
620,0.000862598419189453,0.000200180759715102
621,0.000957489013671875,0.000201633906272366
622,0.000869274139404297,0.000216805224053823
623,0.000859737396240234,0.000225845703666971
624,0.000849723815917969,0.000206698870607667
625,0.000861167907714844,0.000226810139371414
626,0.000940322875976563,0.000197163948386054
627,0.000952243804931641,0.000174232930744383
628,0.0010223388671875,0.000187168151465172
629,0.00096893310546875,0.000198881684878484
630,0.000815868377685547,0.000232266200146218
631,0.000844955444335938,0.000207782851778391
632,0.000886917114257813,0.000200230730517456
633,0.000852584838867188,0.000203814280679193
634,0.000929832458496094,0.000218222690352838
635,0.000913143157958984,0.000222073052640196
636,0.000951290130615234,0.000209283171439991
637,0.000867843627929688,0.000189212445258206
638,0.000819683074951172,0.000199502649453552
639,0.000945091247558594,0.000224784091189071
640,0.000833988189697266,0.000209152757968606
641,0.000918865203857422,0.000189888985848283
642,0.000872135162353516,0.000195807708346581
643,0.000916481018066406,0.000225700682866273
644,0.000795364379882813,0.00022502672511484
645,0.000887870788574219,0.000210686493194817
646,0.000833034515380859,0.000193635814288811
647,0.000861167907714844,0.000218634906947133
648,0.000868797302246094,0.000207357834481885
649,0.000982761383056641,0.000214934580470091
650,0.000862598419189453,0.0002188012388263
651,0.000762462615966797,0.000230134081512585
652,0.000859737396240234,0.000211078957858078
653,0.000902175903320313,0.0002086782363374
654,0.000849723815917969,0.000226998528241147
655,0.000866889953613281,0.000225430534658161
656,0.000480175018310547,0.00024417042550362
657,0.00184297561645508,0.000206650463892647
658,0.00117206573486328,0.000218160165345962
659,0.000954627990722656,0.000236738003946665
660,0.000902175903320313,0.000231854682598801
661,0.000899314880371094,0.000222894723084796
662,0.000875473022460938,0.000208904748078813
663,0.00089263916015625,0.000231060939977908
664,0.000950813293457031,0.000243525176365413
665,0.000815868377685547,0.000212526059294965
666,0.00093841552734375,0.000213857079783096
667,0.000844001770019531,0.00020331388097122
668,0.000849246978759766,0.000225587824456468
669,0.000906467437744141,0.00022258848436921
670,0.000938892364501953,0.00019698396370375
671,0.00093841552734375,0.000222600742006833
672,0.000877857208251953,0.000241940238501382
673,0.000927925109863281,0.000223090495248942
674,0.000933170318603516,0.000207734697654778
675,0.000884056091308594,0.00021455340788609
676,0.00081634521484375,0.000231422784117296
677,0.000853538513183594,0.000220135632508381
678,0.0008087158203125,0.000210323568115491
679,0.000833988189697266,0.000214595793830099
680,0.000810146331787109,0.00021488802897885
681,0.000802040100097656,0.000201958410064322
682,0.000837802886962891,0.000204700366145453
683,0.000860214233398438,0.000214532211773704
684,0.000890254974365234,0.000213312024812713
685,0.000868797302246094,0.00023325477926392
686,0.000887393951416016,0.000219784172770843
687,0.000894546508789063,0.000219742787609806
688,0.000810623168945313,0.000234173170001811
689,0.000911235809326172,0.000233492506096184
690,0.000865936279296875,0.000206006897394549
691,0.000857353210449219,0.000197735118856561
692,0.000915050506591797,0.000222302280949913
693,0.000816822052001953,0.000225914153351864
694,0.000835418701171875,0.000216187681736743
695,0.000869274139404297,0.000209656573797927
696,0.000852108001708984,0.000225370009351757
697,0.000845909118652344,0.00022884607035623
698,0.000820636749267578,0.00020797972982077
699,0.000864982604980469,0.00019333968098367
700,0.000819683074951172,0.000207633975672192
701,0.000870227813720703,0.00022556363316497
702,0.000864505767822266,0.000214913421951344
703,0.000833034515380859,0.00021005529262985
704,0.000771522521972656,0.0001993247765639
705,0.000834465026855469,0.000202637278889261
706,0.000820636749267578,0.000210457577616824
707,0.000750541687011719,0.000209344003256913
708,0.000857830047607422,0.0002078266185723
709,0.000745773315429688,0.000227878277798537
710,0.000825405120849609,0.00021531930224106
711,0.000790119171142578,0.000219457017289682
712,0.00074005126953125,0.00022103035402504
713,0.000802040100097656,0.000218256029699202
714,0.000774860382080078,0.000231799758393621
715,0.000773906707763672,0.000231634907637843
716,0.000772476196289063,0.000219378261546162
717,0.000747203826904297,0.000200471324338276
718,0.000818252563476563,0.000226830188177628
719,0.000878334045410156,0.000223057878487154
720,0.000784873962402344,0.000204371315708002
721,0.000791072845458984,0.000215985652864576
722,0.000791072845458984,0.000229702907314328
723,0.000844001770019531,0.000219473593845132
724,0.000868320465087891,0.000217901538316639
725,0.00081634521484375,0.000210098586039619
726,0.000795841217041016,0.000219423860421913
727,0.000870227813720703,0.000216616367465316
728,0.000807285308837891,0.000207918498851523
729,0.000861167907714844,0.00022482454836101
730,0.000896930694580078,0.000230086652374271
731,0.000881195068359375,0.000219104469005957
732,0.000830650329589844,0.000231143584728084
733,0.000784873962402344,0.00021335892016304
734,0.000845432281494141,0.00021421826409682
735,0.000819683074951172,0.000219771758040821
736,0.000904560089111328,0.000213695411686865
737,0.000865936279296875,0.000208089026023501
738,0.000821590423583984,0.000213742222921578
739,0.000781059265136719,0.000217098674420819
740,0.000823497772216797,0.000218784611328835
741,0.000826358795166016,0.000216393724991001
742,0.000839710235595703,0.000224050553602652
743,0.000796318054199219,0.00023077342082011
744,0.000852108001708984,0.000217098674420819
745,0.000760078430175781,0.000220639102171618
746,0.000790596008300781,0.000220985086639338
747,0.000819683074951172,0.000234274128475999
748,0.000807762145996094,0.000231202598605643
749,0.000795841217041016,0.000223668651280687
750,0.000851631164550781,0.000236672684720462
751,0.000864505767822266,0.000231599567209786
752,0.000820159912109375,0.000240994839500384
753,0.000800132751464844,0.000250175513184656
754,0.000893592834472656,0.000231202598605643
755,0.00080108642578125,0.000237033636213775
756,0.000837802886962891,0.000214281939308258
757,0.000801563262939453,0.000236376601017779
758,0.000809669494628906,0.000233044130202133
759,0.000815868377685547,0.000218605785856543
760,0.000858783721923828,0.000213299233382328
761,0.000865936279296875,0.000230315802727916
762,0.000857830047607422,0.000236672684720462
763,0.000828266143798828,0.000216460961944499
764,0.00092315673828125,0.000230769479714307
765,0.0008544921875,0.000234921558192477
766,0.000851631164550781,0.00024159791176743
767,0.000886917114257813,0.000227350836574575
768,0.000889778137207031,0.00021924555634745
769,0.000854969024658203,0.000235520873514708
770,0.000810623168945313,0.000209265787672917
771,0.000840663909912109,0.000207577024237256
772,0.000800609588623047,0.000199301960866497
773,0.000844478607177734,0.000222870239472718
774,0.000822067260742188,0.000215977230893745
775,0.000853538513183594,0.000224460171298636
776,0.000842571258544922,0.000232782504350372
777,0.000844001770019531,0.000234297420407503
778,0.000895023345947266,0.000226320398140441
779,0.000795841217041016,0.000219092015760894
780,0.000742435455322266,0.000210979832434692
781,0.000754356384277344,0.000230173598328906
782,0.000800132751464844,0.000232903591649294
783,0.000769615173339844,0.000220606122970033
784,0.000748634338378906,0.00022397747377893
785,0.000773906707763672,0.00022278452564115
786,0.000750064849853516,0.000230477650872595
787,0.000782489776611328,0.000220234766659468
788,0.000801563262939453,0.000238120846813822
789,0.000845432281494141,0.000234600005079043
790,0.000803470611572266,0.000229805829676157
791,0.000783443450927734,0.000221042698066788
792,0.000860691070556641,0.000230659101412263
793,0.000767230987548828,0.000234685278937485
794,0.000843524932861328,0.000219465305723913
795,0.000833511352539063,0.000231658464928035
796,0.000797271728515625,0.000220313216226847
797,0.000893115997314453,0.000222625255257381
798,0.000840663909912109,0.000235601953808973
799,0.000860691070556641,0.000220391637869691
800,0.000894546508789063,0.000233967235121307
801,0.000850200653076172,0.000231560293741662
802,0.000861644744873047,0.000242056744747209
803,0.000891208648681641,0.000233554820617201
804,0.000814914703369141,0.000228113633672423
805,0.000786781311035156,0.000246786148739191
806,0.000853538513183594,0.000247448623560853
807,0.000867843627929688,0.000246513281576592
808,0.000878810882568359,0.000236207243697059
809,0.000840187072753906,0.000236561216179002
810,0.000815868377685547,0.000237386376445344
811,0.000837802886962891,0.000231434573857951
812,0.000761508941650391,0.000227226790277135
813,0.000818252563476563,0.000236576594272769
814,0.000823020935058594,0.000238151400589121
815,0.000794410705566406,0.000239658943931504
816,0.000874519348144531,0.00024698507776243
817,0.000824451446533203,0.000239324754964571
818,0.000799179077148438,0.00025039354376944
819,0.000887393951416016,0.00023422753766444
820,0.000787734985351563,0.000240235084439603
821,0.000851631164550781,0.000248870627416609
822,0.000851154327392578,0.000246542795288948
823,0.000798225402832031,0.000234064396791562
824,0.000780105590820313,0.000222249088306989
825,0.000837326049804688,0.000228324848200156
826,0.000791549682617188,0.000241360631914071
827,0.000777721405029297,0.00024064360920516
828,0.000807762145996094,0.000241665663220175
829,0.000746726989746094,0.000227290822626225
830,0.000855445861816406,0.000230343443388409
831,0.000782966613769531,0.000225256985267742
832,0.000850200653076172,0.000231505299693279
833,0.000824451446533203,0.000236230345026593
834,0.000805377960205078,0.000221605676635169
835,0.000835418701171875,0.000218493425292527
836,0.000822544097900391,0.000238032982863825
837,0.000798702239990234,0.000261592013183497
838,0.000842094421386719,0.000236972236488302
839,0.000820159912109375,0.000240477256965248
840,0.000871658325195313,0.000248621998043808
841,0.000790596008300781,0.000252585103163206
842,0.000797748565673828,0.000255613183101669
843,0.000790119171142578,0.000231819375675026
844,0.000824451446533203,0.000231831145247073
845,0.000781536102294922,0.000220948042789167
846,0.000830173492431641,0.000220375130369266
847,0.000857830047607422,0.000233356135068166
848,0.000865936279296875,0.000223835305819406
849,0.000828266143798828,0.00023200369704021
850,0.00081634521484375,0.000239590625019219
851,0.000768661499023438,0.000237730941966269
852,0.000806331634521484,0.00023257142753107
853,0.000851631164550781,0.000241609204995575
854,0.000829219818115234,0.000237971840982485
855,0.000770092010498047,0.000254814924502025
856,0.000912189483642578,0.000239693096085381
857,0.000812530517578125,0.000249971846395964
858,0.000761032104492188,0.000259770800693119
859,0.000844001770019531,0.000244192773494713
860,0.000764369964599609,0.000242717139511489
861,0.000828742980957031,0.00025435765194961
862,0.000779628753662109,0.000262702223002642
863,0.000840187072753906,0.000227350836574575
864,0.000791072845458984,0.000228591575950781
865,0.000759124755859375,0.000251603794133163
866,0.000788211822509766,0.000219962040236301
867,0.000657558441162109,0.00020048947064511
868,0.000817298889160156,0.000213912359239946
869,0.000763893127441406,0.00021040139047567
870,0.0007171630859375,0.00020751129162082
871,0.000714302062988281,0.000249840830074028
872,0.000780105590820313,0.0002424509467191
873,0.000702857971191406,0.000226665735617787
874,0.000748157501220703,0.000220651468101412
875,0.000719070434570313,0.000235995376136413
876,0.000736236572265625,0.000243674518774425
877,0.000756263732910156,0.000241028802366953
878,0.000743389129638672,0.000260574819304475
879,0.000677108764648438,0.00026307586135203
880,0.000733852386474609,0.000242165683717405
881,0.000731468200683594,0.000227530783443293
882,0.000748157501220703,0.000242124367808941
883,0.000763416290283203,0.000239225927972617
884,0.000725269317626953,0.000216217128508664
885,0.000733375549316406,0.00025502185618958
886,0.000742435455322266,0.000247757172271679
887,0.000776767730712891,0.000237436177917555
888,0.000716209411621094,0.000224553346124467
889,0.000627994537353516,0.000244148075466914
890,0.000767707824707031,0.000259497567848463
891,0.000784873962402344,0.000267783868570504
892,0.000782489776611328,0.000239833448290532
893,0.000682353973388672,0.000237229241781668
894,0.000817298889160156,0.000238742608178996
895,0.000681400299072266,0.000251053744909061
896,0.000735759735107422,0.000246535417192097
897,0.000730037689208984,0.000248292546938035
898,0.000697612762451172,0.000265354630280423
899,0.000702381134033203,0.000237990949507772
900,0.000810623168945313,0.000269793773042098
901,0.000726699829101563,0.000271011354257298
902,0.000804424285888672,0.000250937791438337
903,0.000817298889160156,0.000266292100723682
904,0.000879287719726563,0.00025267870520576
905,0.00067901611328125,0.000236557371499357
906,0.000781536102294922,0.000245966639123958
907,0.000686168670654297,0.000254336197126751
908,0.000800132751464844,0.000267953633557677
909,0.000773906707763672,0.000251480861264794
910,0.000800609588623047,0.000245900072697572
911,0.000737190246582031,0.000241959033625784
912,0.000715255737304688,0.00026061670001825
913,0.000751018524169922,0.000282538791963181
914,0.000862598419189453,0.000232528406910641
915,0.000792980194091797,0.000237639106677509
916,0.000773906707763672,0.000237834214279749
917,0.000679492950439453,0.000249009459234125
918,0.000750064849853516,0.000251683306933696
919,0.000720500946044922,0.000234041081669386
920,0.000720024108886719,0.000241202315666767
921,0.000829219818115234,0.000249235808284225
922,0.000807285308837891,0.000248153314037192
923,0.000712871551513672,0.00025781681633356
924,0.000693798065185547,0.000235868164251664
925,0.000766277313232422,0.000233246980839309
926,0.000720500946044922,0.000213644333187605
927,0.000821590423583984,0.000271038200354863
928,0.00077056884765625,0.000275108180726666
929,0.000759124755859375,0.000248116660814235
930,0.000674724578857422,0.000226288246931252
931,0.000717639923095703,0.000250262748212536
932,0.000741958618164063,0.000260595760502701
933,0.000820636749267578,0.000278577393039852
934,0.000605106353759766,0.000286946640232826
935,0.000736236572265625,0.000259048561230542
936,0.000711441040039063,0.000247859936487036
937,0.000617504119873047,0.00023594912520483
938,0.000691413879394531,0.000284444456211964
939,0.000817775726318359,0.000269321409204308
940,0.00072479248046875,0.000272717507197802
941,0.000651836395263672,0.000239028151407685
942,0.000598907470703125,0.000270446970618232
943,0.000773429870605469,0.000293725496697478
944,0.000635623931884766,0.000272570730634136
945,0.000712871551513672,0.000258479168971581
946,0.000691890716552734,0.000257393146870594
947,0.000689029693603516,0.000247683743156444
948,0.000634670257568359,0.000235914431055611
949,0.000683784484863281,0.000260260499133542
950,0.000864028930664063,0.000228655226107165
951,0.000752449035644531,0.00022595843327508
952,0.000891208648681641,0.000282866940244305
953,0.000481128692626953,0.000255192983104451
954,0.0009002685546875,0.00025804248895521
955,0.000735282897949219,0.000269024070276774
956,0.000687122344970703,0.000278701427176495
957,0.00080108642578125,0.000260756253816748
958,0.000705718994140625,0.000283323141268903
959,0.000618934631347656,0.000273450208266447
960,0.000771999359130859,0.000271902565853502
961,0.000746726989746094,0.000244125723384031
962,0.000672340393066406,0.000289433477660931
963,0.000837802886962891,0.000284444456211964
964,0.000728607177734375,0.000293297880784179
965,0.000684738159179688,0.000300895959713805
966,0.000786304473876953,0.000298772632598117
967,0.000933647155761719,0.00025161102360789
968,0.000602245330810547,0.000303346395967675
969,0.000868320465087891,0.000313855941730633
970,0.000773906707763672,0.000300454332834748
971,0.000893592834472656,0.000252239194728391
972,0.000652790069580078,0.000228217272772524
973,0.001007080078125,0.000254128707121986
974,0.000820159912109375,0.000254714966277354
975,0.000607013702392578,0.000255363995342176
976,0.000939846038818359,0.00030558677654512
977,0.000902652740478516,0.000265628686258739
978,0.000840187072753906,0.000317228261291095
979,0.000791549682617188,0.000313867532754244
980,0.000689029693603516,0.000297167120596045
981,0.000720024108886719,0.000246926152537266
982,0.000770092010498047,0.000251517024228019
983,0.000746250152587891,0.000288028590103343
984,0.000735759735107422,0.000251936135255205
985,0.000728607177734375,0.000271011354257298
986,0.000652790069580078,0.000251748344181932
987,0.000617027282714844,0.000256890902058916
988,0.0007171630859375,0.000296762853069713
989,0.000776767730712891,0.00025946251718742
990,0.000782012939453125,0.000380897092174274
991,0.000613212585449219,0.000265121459960937
992,0.000751972198486328,0.000279366353286394
993,0.000749111175537109,0.000283534928499317
994,0.000702857971191406,0.000279118820852104
995,0.000944614410400391,0.000248387766585773
996,0.000622749328613281,0.000234669776904379
997,0.000832557678222656,0.000339046979556645
998,0.00102758407592773,0.00039255255229178
999,0.000965118408203125,0.000355811273692658
1000,0.000796318054199219,0.000294412097335974
1001,0.0010218620300293,0.000256486979725364
1002,0.000585556030273438,0.000270426792275021
1003,0.000854015350341797,0.000287434338082722
1004,0.000993728637695313,0.000362526719546291
1005,0.000734329223632813,0.00034081817048337
1006,0.000737190246582031,0.00032099606501211
1007,0.0007476806640625,0.000351356190837518
1008,0.00105762481689453,0.000277563465171087
1009,0.000364780426025391,0.00032203705043638
1010,0.00102329254150391,0.000317308527249222
1011,0.000828266143798828,0.00032797523895576
1012,0.000604152679443359,0.000385727957571702
1013,0.00101470947265625,0.000401559177015708
1014,0.000819206237792969,0.000472999387609039
1015,0.000900745391845703,0.00045605180451505
1016,0.000547885894775391,0.000367510001485792
1017,0.00117826461791992,0.000367410998223985
1018,0.00107812881469727,0.000467459982273104
1019,0.000439167022705078,0.000320531058543594
1020,0.00136137008666992,0.000335503654630206
1021,0.00144195556640625,0.000420577942310832
1022,0.000880241394042969,0.00035731110849801
1023,0.00139760971069336,0.000379164405632504
1024,0.00114345550537109,0.00047271472395812
1025,0.000761032104492188,0.000544152893097895
1026,0.000859737396240234,0.000495000150116382
1027,0.000682353973388672,0.000521359016945775
1028,0.001129150390625,0.000485284370342045
1029,0.00112009048461914,0.000297576951633387
1030,0.00108146667480469,0.00034721080298488
1031,0.0014042854309082,0.000512704395032088
1032,0.00114774703979492,0.000508557950831333
1033,0.000663280487060547,0.000595789281680657
1034,0.00105190277099609,0.000596911755929268
1035,0.00141334533691406,0.000385057741464614
1036,0.000819683074951172,0.000358297357155551
1037,0.00143051147460937,0.000571084515722636
1038,0.000774383544921875,0.000572801913975492
1039,0.0011134147644043,0.000544433615132832
1040,0.00123834609985352,0.000670757866171278
1041,0.00196456909179687,0.000613526194397733
1042,0.000533580780029297,0.000510029446818795
1043,0.00171184539794922,0.000766782617752212
1044,0.00119876861572266,0.000673377812610358
1045,0.00123167037963867,0.000844557089150064
1046,0.00116300582885742,0.000817449660399101
1047,0.00186061859130859,0.000702132312393193
1048,0.000635623931884766,0.000716310359377983
1049,0.00151872634887695,0.000830255517517191
1050,0.000691890716552734,0.000810728627245192
1051,0.00195598602294922,0.0009094033462983
1052,0.00165796279907227,0.000761526707135656
1053,0.00119590759277344,0.00101442261276511
1054,0.00139570236206055,0.000752917266129725
1055,0.000505924224853516,0.000627711883461265
1056,0.00166893005371094,0.00117274490494029
1057,0.00190544128417969,0.000797244349835486
1058,0.00129556655883789,0.000865406765135984
1059,0.00127410888671875,0.000740405125916235
1060,0.00286626815795898,0.00106382872265255
1061,0.000698089599609375,0.0010592776215086
1062,0.0028080940246582,0.00111548427480946
1063,0.00337600708007812,0.00106814248186507
1064,0.000306129455566406,0.00171109477935835
1065,0.00311756134033203,0.00148876838771617
1066,-0.0000405311584472656,0.00118825217474153
1067,-0.000872135162353516,0.0015095022670134
1068,0.00230216979980469,0.0015072254609483
1069,0.00198602676391602,0.00109350810611781
1070,0.00191354751586914,0.000917797453095858
1071,0.00218296051025391,0.00113172495366142
1072,0.000586986541748047,0.00119691559869619
1073,-0.000180721282958984,0.00144793768193982
1074,0.00127601623535156,0.00131052479675616
1075,-0.0000200271606445312,0.00133712621416905
1076,0.000885009765625,0.00185380158062591
1077,0.00248003005981445,0.0013119231401078
1078,0.00128841400146484,0.00128257814774598
1079,0.000323295593261719,0.00152251827188311
1080,0.000838756561279297,0.0020433108187452
1081,0.00446748733520508,0.00230690485759524
1082,0.0016331672668457,0.00231375776379755
1083,0.00330400466918945,0.00189804861614668
1084,0.00423383712768555,0.00190640235315504
1085,0.00008392333984375,0.00203280059611583
1086,0.00420475006103516,0.00174394675455665
1087,0.000756740570068359,0.00151558263218053
1088,0.00380373001098633,0.00240101785434216
1089,0.00510883331298828,0.00283879098176455
1090,0.00148487091064453,0.00229166489658865
1091,-0.00213623046875,0.00242940815549424
1092,0.00503730773925781,0.00206185710525148
1093,0.00208330154418945,0.00201699029163853
1094,0.000998497009277344,0.00227887856339463
1095,0.00530099868774414,0.0019120121211256
1096,0.00150871276855469,0.00280247092254894
1097,0.00316381454467773,0.002301954087057
1098,0.00106096267700195,0.00245912795674035
1099,0.00254583358764648,0.00299360175611878
1100,-0.00163555145263672,0.00315351588734607
