Wavelength (nm),Absorbance (AU),Std.Dev.
190,0.945591449737549,0.297805132139316
191,0.765405654907227,0.19808096507637
192,0.81358528137207,0.25683408091059
193,0.966990947723389,0.184960009402371
194,0.975259780883789,0.107800734610523
195,0.739823341369629,0.108394038480559
196,1.0247654914856,0.192796291863329
197,1.33349418640137,0.279610837520623
198,1.17181253433228,0.178211284954014
199,1.20467853546143,0.176900732102936
200,1.41647911071777,0.280618594633885
201,1.40930414199829,0.175745981704986
202,1.70801544189453,0.107712231878465
203,1.72156190872192,0.0439656528447596
204,1.77884721755981,0.0097065089985226
205,1.8100380897522,0.00666318315650029
206,1.80621814727783,0.00630186140967518
207,1.82166910171509,0.00436412037538913
208,1.83556890487671,0.00424655142583715
209,1.84315824508667,0.00399430682668943
210,1.86672639846802,0.00294150512144125
211,1.88900566101074,0.00199703682869073
212,1.90531444549561,0.00353306049588332
213,1.92156648635864,0.00665842923233365
214,1.93298435211182,0.00676527284053667
215,1.93891096115112,0.00454117559335802
216,1.94863414764404,0.00351681159445506
217,1.94928359985352,0.00443965212253866
218,1.9351282119751,0.0047750990140845
219,1.93107795715332,0.00411602829859443
220,1.91873455047607,0.00288725966365742
221,1.88388824462891,0.00252642420530029
222,1.83533477783203,0.00340171765283324
223,1.79518890380859,0.00374142271839977
224,1.759108543396,0.00332144269220585
225,1.7077374458313,0.00285041367891495
226,1.65422964096069,0.0015517520796404
227,1.6037712097168,0.00199954190074233
228,1.5524787902832,0.00168569913996349
229,1.4963812828064,0.00113946482365003
230,1.44352722167969,0.00132272668066271
231,1.39502477645874,0.00077207814074407
232,1.35014295578003,0.000511183667340598
233,1.30590486526489,0.000834137443548204
234,1.26680564880371,0.000632032139162162
235,1.23305368423462,0.000573842565258725
236,1.19953393936157,0.000618192848330819
237,1.17012882232666,0.00062728286105635
238,1.1454873085022,0.000524725440621978
239,1.12285995483398,0.000599089673748797
240,1.10200262069702,0.000488906698196245
241,1.08517837524414,0.000412128565553879
242,1.0717306137085,0.000452327235650074
243,1.05965137481689,0.000352885271110526
244,1.05107831954956,0.000358459776636765
245,1.04594707489014,0.000382060547107062
246,1.04396772384644,0.000342659840073045
247,1.04357194900513,0.000559214322292986
248,1.0463547706604,0.000395608200472495
249,1.05309247970581,0.000533375986256011
250,1.06109428405762,0.000413600096067526
251,1.07255935668945,0.000511539382292794
252,1.08713626861572,0.000544179634768948
253,1.1009840965271,0.000682660299994403
254,1.11522531509399,0.00086805948779752
255,1.13024854660034,0.000645168957089696
256,1.14805555343628,0.00069368777758559
257,1.16425943374634,0.000983896137126209
258,1.17608451843262,0.00133446812550417
259,1.18735647201538,0.000924149287048824
260,1.19447898864746,0.00130270654943166
261,1.19638156890869,0.00121798212057511
262,1.193199634552,0.0017952599212311
263,1.1882815361023,0.00163365273325835
264,1.18328762054443,0.0015359924844037
265,1.17256021499634,0.0014668689080239
266,1.1490535736084,0.000988970842001418
267,1.11580944061279,0.000698974965129073
268,1.07884740829468,0.000662923705939589
269,1.03650569915771,0.000726316756559254
270,0.99312686920166,0.000632181777522784
271,0.953245639801025,0.000543724847491359
272,0.918498992919922,0.000542438684016523
273,0.87700891494751,0.000459350379134838
274,0.827064514160156,0.00047736329615777
275,0.773780822753906,0.000394189485918259
276,0.718855857849121,0.000328833763599766
277,0.666346549987793,0.000349820426952102
278,0.62056827545166,0.000262376586163088
279,0.581679344177246,0.000275319680416353
280,0.548788070678711,0.000297674738270369
281,0.521056652069092,0.00032975625322952
282,0.497718811035156,0.000283432263544924
283,0.477599143981934,0.000198927410062415
284,0.459627151489258,0.000199256321634209
285,0.444969177246094,0.000200815823770468
286,0.431657314300537,0.000229016899948107
287,0.420065879821777,0.000184727478222706
288,0.410941600799561,0.00016480916014727
289,0.403084754943848,0.000211466393303455
290,0.396199703216553,0.000261362445773606
291,0.390698432922363,0.000234196471974106
292,0.386433601379395,0.000212110546431108
293,0.382927417755127,0.000202906397533091
294,0.380377292633057,0.00022415201383156
295,0.37848424911499,0.000262896027693703
296,0.377883911132812,0.000184953817811591
297,0.377385139465332,0.000205856736917711
298,0.377477169036865,0.00020747622571011
299,0.377818584442139,0.000227382837537021
300,0.379130840301514,0.000268401297198859
301,0.380719184875488,0.000302162794072303
302,0.382452487945557,0.000244854836057758
303,0.384515762329102,0.000230938886530538
304,0.386826992034912,0.000227498803291556
305,0.390303611755371,0.000264984205106035
306,0.393215179443359,0.000333175100121227
307,0.396535873413086,0.000275735596340788
308,0.399986267089844,0.000228089710269479
309,0.403368949890137,0.000408128040768459
310,0.407577037811279,0.000368310947106973
311,0.410872936248779,0.000308300944359379
312,0.414547920227051,0.000231835068304976
313,0.418524265289307,0.000244483111483221
314,0.422157764434814,0.000246084934977436
315,0.425951480865479,0.000215783434841433
316,0.429117679595947,0.000208822012659597
317,0.432445049285889,0.000258436941862801
318,0.435781478881836,0.000230058980861373
319,0.438786029815674,0.000260134664723318
320,0.441362380981445,0.00024832184918006
321,0.443745613098145,0.000267600401417474
322,0.445661067962647,0.000310470427694333
323,0.447520732879639,0.000218826177703548
324,0.448811054229736,0.000179959126861436
325,0.450107574462891,0.000223583243531905
326,0.450801372528076,0.000252887384916419
327,0.450501441955566,0.000327309028154185
328,0.450249195098877,0.000302818252110988
329,0.450423717498779,0.000286902262955971
330,0.449019432067871,0.000330736672855663
331,0.447553634643555,0.000280587774794754
332,0.445818424224854,0.000245166649140476
333,0.443817615509033,0.000235157600041329
334,0.440905094146729,0.000253332951145138
335,0.438200950622559,0.000337374336512839
336,0.434875011444092,0.000251871146497699
337,0.431569576263428,0.000285217187605126
338,0.426997661590576,0.000222792690283948
339,0.422252655029297,0.000234789890889409
340,0.417541027069092,0.000261049073958216
341,0.412458896636963,0.000258458056279579
342,0.40696907043457,0.000246601812116913
343,0.40138053894043,0.000259567654971374
344,0.395286083221436,0.00028285407885615
345,0.389410495758057,0.000272777529392446
346,0.382648944854736,0.000221794385477843
347,0.375765323638916,0.000215184093874671
348,0.368703842163086,0.000229877056624646
349,0.36167573928833,0.000258303177142795
350,0.354067325592041,0.000194769155697068
351,0.346475124359131,0.00015776609744625
352,0.33890438079834,0.000209191890546709
353,0.331043243408203,0.000169015736214075
354,0.323443412780762,0.000188417664217038
355,0.315413951873779,0.00026074230179802
356,0.3069748878479,0.000182672823945021
357,0.298511028289795,0.000220948042789167
358,0.289919376373291,0.000212200571829526
359,0.281759738922119,0.0002510972136558
360,0.273436069488525,0.000318104354763112
361,0.26508092880249,0.000338746405934125
362,0.257495880126953,0.000255534893132991
363,0.24923038482666,0.000233854477009969
364,0.241590023040771,0.000260337367997986
365,0.234824180603027,0.000260337367997986
366,0.228734970092773,0.000267083298709325
367,0.222413539886475,0.000244735945622947
368,0.215944290161133,0.000208294347627044
369,0.209128379821777,0.000194521509279979
370,0.203021049499512,0.000239761385799006
371,0.196139335632324,0.000291144133042788
372,0.189619541168213,0.000209734643647513
373,0.183266162872314,0.000182184246427898
374,0.177150249481201,0.000202232929438618
375,0.171055793762207,0.000192675257199692
376,0.165050506591797,0.000217182444556064
377,0.15954065322876,0.000259427461790761
378,0.153619766235352,0.00028474485715049
379,0.147707462310791,0.000249644176668089
380,0.142423152923584,0.000276335258627731
381,0.137395858764648,0.000268645162947494
382,0.132196426391602,0.000221613884708829
383,0.127226829528809,0.000166210413531622
384,0.122644424438477,0.000190873095965932
385,0.117804527282715,0.000275748789747161
386,0.112942695617676,0.000239681712574792
387,0.108419895172119,0.00017919943897847
388,0.104404449462891,0.000214379537899468
389,0.100332736968994,0.000227574748814005
390,0.0964603424072266,0.000183075664001898
391,0.0925326347351074,0.000224111435251993
392,0.0885148048400879,0.000195347328358973
393,0.0845308303833008,0.000192344548866661
394,0.0815715789794922,0.000197002431238943
395,0.0783610343933106,0.00017190492095925
396,0.0749731063842773,0.000203170683255892
397,0.0716319084167481,0.000233624904585956
398,0.0686130523681641,0.000203836591307337
399,0.0655856132507324,0.000204032819638289
400,0.0631799697875977,0.000209022263129476
401,0.0605072975158691,0.000167206061889214
402,0.0580391883850098,0.000199397769252079
403,0.0554041862487793,0.000237880098694506
404,0.0527071952819824,0.000270635229272128
405,0.0503053665161133,0.0002419026438716
406,0.0483732223510742,0.000243072856991431
407,0.046473503112793,0.000234673652508658
408,0.0440883636474609,0.000176375612768436
409,0.0418787002563477,0.000182129324281024
410,0.0400190353393555,0.000242105585519751
411,0.0381684303283691,0.00023540499607915
412,0.0366668701171875,0.000234925429643078
413,0.0347995758056641,0.000228551785601483
414,0.0335474014282227,0.000155135581986581
415,0.0318498611450195,0.000164400286047762
416,0.0304045677185059,0.000220457655510853
417,0.028742790222168,0.000209738980009327
418,0.0277976989746094,0.000270144137212451
419,0.0265402793884277,0.000248921784989555
420,0.0248279571533203,0.000215298181531008
421,0.0237579345703125,0.000249184715180208
422,0.022794246673584,0.000194250138190827
423,0.0216145515441895,0.000217383361172648
424,0.0207552909851074,0.000276032295457848
425,0.0198917388916016,0.000240923124392716
426,0.0186495780944824,0.000181428862771517
427,0.0177574157714844,0.000191904297669931
428,0.0171370506286621,0.000154044234763776
429,0.0164170265197754,0.000174248590020084
430,0.015200138092041,0.000242248294394814
431,0.0147590637207031,0.000238978681691755
432,0.0143828392028809,0.000220836873955569
433,0.0131354331970215,0.000180453728978589
434,0.0125317573547363,0.000168994210345715
435,0.0123825073242187,0.000223908432044287
436,0.0115094184875488,0.000224362904139093
437,0.0108966827392578,0.000210297620929031
438,0.0101547241210937,0.00020364910606444
439,0.0099644660949707,0.000181629270280722
440,0.00952720642089844,0.000196127940173715
441,0.00874042510986328,0.000194568259144693
442,0.00849056243896484,0.000160778289622045
443,0.00824594497680664,0.000229425579154563
444,0.00767326354980469,0.000200648180825744
445,0.00715923309326172,0.000228754644021072
446,0.00706291198730469,0.000252577901569318
447,0.00672483444213867,0.000213303497277688
448,0.00642108917236328,0.000185724247365389
449,0.00604343414306641,0.000234324591401405
450,0.00562906265258789,0.000213750732953749
451,0.00560426712036133,0.000170888751470736
452,0.00541877746582031,0.000188894934129943
453,0.00504875183105469,0.000156603079897258
454,0.00466251373291016,0.000162208759696543
455,0.00448226928710938,0.000208869916107236
456,0.00426197052001953,0.00017847728828872
457,0.004180908203125,0.000177926084595014
458,0.00390386581420898,0.000189831501794742
459,0.00365447998046875,0.00017786984762987
460,0.00372743606567383,0.000187075803150013
461,0.00337505340576172,0.000181584197875464
462,0.00349283218383789,0.000212286274810334
463,0.00310468673706055,0.000206143713087832
464,0.00287675857543945,0.000217521383696028
465,0.00300979614257812,0.000192311446754722
466,0.00291728973388672,0.000190782541038095
467,0.00281190872192383,0.000223037490588852
468,0.00261688232421875,0.000170755646009549
469,0.00252580642700195,0.000205746254885281
470,0.00247764587402344,0.000195379916119373
471,0.00237131118774414,0.000218185177498836
472,0.00204753875732422,0.000182692738130619
473,0.00206184387207031,0.000190152232076525
474,0.00205850601196289,0.000172975595674436
475,0.00194787979125977,0.000180039971037509
476,0.0019831657409668,0.000175885055607645
477,0.001861572265625,0.000180675354810871
478,0.00162744522094727,0.000158407571857898
479,0.00169801712036133,0.000191125469788848
480,0.00164699554443359,0.000191382263101363
481,0.00174140930175781,0.000170939304370179
482,0.00155544281005859,0.000177003597383426
483,0.00144433975219727,0.000196836161046508
484,0.00142669677734375,0.000192093776682982
485,0.00101566314697266,0.000197974151540555
486,0.00127124786376953,0.000182134317887832
487,0.00176668167114258,0.000162544827929109
488,0.0015711784362793,0.000177736853160454
489,0.00131988525390625,0.000207270093677178
490,0.00145244598388672,0.000185719350284338
491,0.00125646591186523,0.000158949216168404
492,0.00129604339599609,0.000222285915338601
493,0.00116157531738281,0.000213482503980634
494,0.00118255615234375,0.000198986837093277
495,0.00117301940917969,0.000211143579801768
496,0.00118017196655273,0.000224160128665984
497,0.00104331970214844,0.000182553293211499
498,0.00125789642333984,0.000197551050751638
499,0.00115776062011719,0.00022252718605314
500,0.00107908248901367,0.000191534274454242
501,0.00107955932617187,0.00017104036534464
502,0.00103139877319336,0.000209582814459643
503,0.00102806091308594,0.000178975985530022
504,0.00108528137207031,0.000167719294152864
505,0.00108528137207031,0.000205104285513017
506,0.00103521347045898,0.000194376513244401
507,0.00104045867919922,0.000186803353068471
508,0.00109052658081055,0.000186237724284884
509,0.000977039337158203,0.000215437539952711
510,0.00101852416992187,0.000195454382026267
511,0.00107145309448242,0.000189101857961015
512,0.00110626220703125,0.00016244967918295
513,0.00104379653930664,0.000208822012659597
514,0.000981807708740234,0.000211393265448337
515,0.00102090835571289,0.000181569171254002
516,0.00115776062011719,0.000159810890494001
517,0.00108051300048828,0.000188957516395092
518,0.000947952270507813,0.000191015990026297
519,0.00105142593383789,0.000223396045792409
520,0.000964164733886719,0.000189231671234505
521,0.000953197479248047,0.000164153918698666
522,0.000947952270507813,0.000184742247953009
523,0.00102519989013672,0.000205618021356632
524,0.000987052917480469,0.000198189952268447
525,0.00109481811523437,0.000191676675609786
526,0.00104284286499023,0.000182144304690739
527,0.00105667114257812,0.000195733376861185
528,0.00115060806274414,0.000156713386256485
529,0.00115442276000977,0.000179229888318382
530,0.00114822387695312,0.000203742870251501
531,0.00108242034912109,0.000197306896014023
532,0.000990867614746094,0.000210828899975896
533,0.00103998184204102,0.000202744969213367
534,0.00108528137207031,0.000195426460636345
535,0.00108480453491211,0.000189222058490538
536,0.00110292434692383,0.000204815852962056
537,0.00107145309448242,0.000198437603815307
538,0.00107002258300781,0.000210850468370512
539,0.00116634368896484,0.000199816959760255
540,0.00105953216552734,0.000218026718736177
541,0.00109577178955078,0.000222780443207542
542,0.00111961364746094,0.000192145850654575
543,0.00122404098510742,0.000187066079622724
544,0.00119733810424805,0.000198762750171184
545,0.000985145568847656,0.000198602533283159
546,0.00113105773925781,0.00022667777277749
547,0.00107192993164062,0.00021220485780062
548,0.00110244750976562,0.000193842369230895
549,0.00119400024414062,0.000209556775553557
550,0.00104951858520508,0.000208978746741702
551,0.00113487243652344,0.000168838065724732
552,0.0011601448059082,0.00019881307738439
553,0.00103187561035156,0.000241304102320923
554,0.00108003616333008,0.000249301484031593
555,0.00104236602783203,0.000207441153871849
556,0.0010371208190918,0.000203591039927103
557,0.00112009048461914,0.000214858400051267
558,0.00101900100708008,0.000185954264703466
559,0.0012049674987793,0.000200879219752221
560,0.00113296508789062,0.000187963377244268
561,0.00110292434692383,0.000177342399857755
562,0.00117397308349609,0.000183947929819175
563,0.00118637084960937,0.000206028970587017
564,0.0010685920715332,0.000210626049108556
565,0.00106906890869141,0.000213158476986424
566,0.0011134147644043,0.000201669988034615
567,0.0011601448059082,0.000188866043013386
568,0.00110626220703125,0.000212628741296026
569,0.00121021270751953,0.000217984999917032
570,0.00102329254150391,0.000231312717560668
571,0.00109958648681641,0.000220119105809221
572,0.00113439559936523,0.000206143713087832
573,0.00116348266601562,0.00022475172020803
574,0.0010228157043457,0.000219054651777906
575,0.00108146667480469,0.000186530505041468
576,0.00109148025512695,0.000198794778053744
577,0.00108575820922852,0.000199320213633352
578,0.0010371208190918,0.000203367554119191
579,0.00129604339599609,0.000191149261439917
580,0.00113773345947266,0.000212769848135137
581,0.00108814239501953,0.000223139411452259
582,0.00107336044311523,0.000197495796867259
583,0.00136995315551758,0.000198033864630393
584,0.00115394592285156,0.000200085326255177
585,0.000990867614746094,0.000207633975672192
586,0.00124788284301758,0.000216620566067196
587,0.00118207931518555,0.000207756587276408
588,0.00099945068359375,0.000204228859428109
589,0.00121736526489258,0.000211767241930898
590,0.00109672546386719,0.000215678037864031
591,0.00117635726928711,0.000215935116112444
592,0.00109624862670898,0.000226918381881187
593,0.000951766967773438,0.000217450292124831
594,0.00118303298950195,0.000199037107645346
595,0.00107479095458984,0.000205980406441261
596,0.00121164321899414,0.000202982582946708
597,0.00109338760375977,0.00020567993717975
598,0.00109958648681641,0.000190290888001468
599,0.000969409942626953,0.000213184075970963
600,0.00107908248901367,0.000212247712751437
601,0.001068115234375,0.000208909101666911
602,0.00107288360595703,0.000216880720642228
603,0.000969886779785156,0.000218772139876399
604,0.00106620788574219,0.000203125913267192
605,0.00108766555786133,0.000222146758963977
606,0.00107669830322266,0.00021371669079189
607,0.00108575820922852,0.000203237819747505
608,0.00109434127807617,0.000188185824911533
609,0.0010991096496582,0.000183170029066994
610,0.00104856491088867,0.000195244874273591
611,0.000993251800537109,0.000196604996949084
612,0.00103759765625,0.0001956636654477
613,0.000993251800537109,0.000227090661586796
614,0.0010533332824707,0.000202057460051805
615,0.00107097625732422,0.000196822298856903
616,0.000993728637695313,0.000194923191696796
617,0.00106143951416016,0.000214807598095942
618,0.0010676383972168,0.000223762155696631
619,0.000879764556884766,0.000209422189628736
620,0.000949859619140625,0.000201706063342454
621,0.000978469848632813,0.000202758426482205
622,0.000941276550292969,0.000213750732953749
623,0.000946998596191406,0.000227322832037027
624,0.000979423522949219,0.000210721024888258
625,0.000979423522949219,0.000234898328148925
626,0.00103187561035156,0.000198520085677053
627,0.00110912322998047,0.000173511076355625
628,0.00114679336547852,0.000190720557630022
629,0.000949382781982422,0.000206042213367447
630,0.000906944274902344,0.000231532798350255
631,0.000895977020263672,0.000207970983643184
632,0.00105047225952148,0.000201584283304067
633,0.000903606414794922,0.000205975990951139
634,0.000964164733886719,0.000220840992317711
635,0.000977993011474609,0.000222584398339997
636,0.000992298126220703,0.000210094257100102
637,0.000946998596191406,0.000191220618632194
638,0.000932216644287109,0.000204633709488513
639,0.000990390777587891,0.000226505179029114
640,0.00101661682128906,0.000206764861501025
641,0.00102710723876953,0.000184451559505258
642,0.000831127166748047,0.000193010111094261
643,0.0010066032409668,0.000234044967684375
644,0.00092315673828125,0.000223355329870699
645,0.000945091247558594,0.000211896046298948
646,0.000893115997314453,0.000190486746578162
647,0.000892162322998047,0.000213337605372613
648,0.00101375579833984,0.00020797972982077
649,0.0009918212890625,0.000214430441269033
650,0.0010075569152832,0.000219216516376568
651,0.000813007354736328,0.000232461904837202
652,0.00103282928466797,0.000213925114009109
653,0.0010676383972168,0.000205135323290822
654,0.000973224639892578,0.000222662020073128
655,0.001007080078125,0.000226195786748865
656,0.000574111938476563,0.000244780536303033
657,0.00190353393554687,0.000205294872025965
658,0.00133562088012695,0.000213520843035225
659,0.000993728637695313,0.000235115052631172
660,0.000998020172119141,0.000228045844179139
661,0.0010523796081543,0.000216767465899282
662,0.000975131988525391,0.000216061435829259
663,0.000950813293457031,0.000229540512901556
664,0.00104331970214844,0.000238654973138688
665,0.000860214233398438,0.000213017627582449
666,0.000956535339355469,0.000218630747028816
667,0.000974178314208984,0.000206417072425364
668,0.000981330871582031,0.0002302723607009
669,0.00103139877319336,0.000225256985267742
670,0.00104618072509766,0.00019767991642141
671,0.00100326538085937,0.00022125244140625
672,0.000982284545898438,0.000243920733847251
673,0.000998973846435547,0.000225176219045975
674,0.000963687896728516,0.000209912361025964
675,0.00103282928466797,0.000213030435921878
676,0.000905513763427734,0.000231619201446637
677,0.000944614410400391,0.000225507176726
678,0.00102949142456055,0.000212119121924711
679,0.000889301300048828,0.000213567692533099
680,0.000955104827880859,0.000215327749945017
681,0.000962734222412109,0.000205454296861091
682,0.000917434692382813,0.000211741471654936
683,0.000958919525146484,0.000219253852775521
684,0.000903129577636719,0.000215255933893873
685,0.00101566314697266,0.000233601545599287
686,0.000972270965576172,0.000219829687449177
687,0.00100278854370117,0.00021964343140837
688,0.000972270965576172,0.00023838042907666
689,0.000958442687988281,0.000238632106530967
690,0.000895023345947266,0.000211169423042084
691,0.000958442687988281,0.000200494006965196
692,0.000989437103271484,0.00022383936901419
693,0.000896453857421875,0.000230666987328312
694,0.00100421905517578,0.000220292574312435
695,0.000979900360107422,0.000209981673347822
696,0.000949859619140625,0.000220952159079216
697,0.000957489013671875,0.000228981155463085
698,0.000906467437744141,0.000212769848135137
699,0.000918388366699219,0.000195738023405996
700,0.000947952270507813,0.000211311504367944
701,0.000905036926269531,0.000230659101412263
702,0.000956535339355469,0.000216111943042127
703,0.000901222229003906,0.000211337327073721
704,0.000826835632324219,0.00019947529471733
705,0.000900745391845703,0.000200494006965196
706,0.000857830047607422,0.000210876347532115
707,0.000844001770019531,0.000209938355828362
708,0.000885963439941406,0.000206201060394665
709,0.000836849212646484,0.000228141541138525
710,0.000918865203857422,0.000215981441920211
711,0.000843524932861328,0.000218946675565188
712,0.000836372375488281,0.000222052574319501
713,0.000884532928466797,0.000223265728706335
714,0.000876426696777344,0.000233344442414517
715,0.000859260559082031,0.000230666987328312
716,0.000884056091308594,0.000217291297450772
717,0.000830173492431641,0.000200992377127467
718,0.000906944274902344,0.000229592016249162
719,0.0009002685546875,0.000225724859469937
720,0.000866413116455078,0.000203161730047416
721,0.000896930694580078,0.000214022875319653
722,0.000911712646484375,0.000230714297164182
723,0.000890731811523438,0.000220416396802294
724,0.000906467437744141,0.00022090275853625
725,0.000897407531738281,0.000212453296184331
726,0.000900745391845703,0.00021984209890786
727,0.000932693481445313,0.000217663497180293
728,0.000849246978759766,0.000209890696231341
729,0.000946998596191406,0.000227246802324404
730,0.000979900360107422,0.00023204289546194
731,0.000928401947021484,0.000222347280169947
732,0.000888347625732422,0.000230840409324009
733,0.000937938690185547,0.000212821136516775
734,0.000888347625732422,0.000213303497277688
735,0.000893592834472656,0.000222653850638696
736,0.000995635986328125,0.000215888780364
737,0.000966548919677734,0.000208460204477283
738,0.000929355621337891,0.000215505075233352
739,0.000896930694580078,0.000219457017289682
740,0.000957965850830078,0.000219494312778977
741,0.000898838043212891,0.000213835814648379
742,0.000935554504394531,0.000225006515614308
743,0.000891208648681641,0.000233020712996178
744,0.000895023345947266,0.000218272697462768
745,0.000855445861816406,0.000222445428689056
746,0.000880718231201172,0.00022167953835705
747,0.000885009765625,0.000235559486659244
748,0.000848770141601563,0.000230055027516397
749,0.000849246978759766,0.00022475172020803
750,0.000971317291259766,0.000238529179668884
751,0.000933170318603516,0.000237183231455056
752,0.000865459442138672,0.000243372005288735
753,0.000870704650878906,0.000250328154533514
754,0.00101423263549805,0.000230339494925698
755,0.000942230224609375,0.000234882840176855
756,0.000911712646484375,0.000213103001970704
757,0.000946044921875,0.000235118920895708
758,0.000929832458496094,0.000233873921942195
759,0.000897407531738281,0.000218589143491489
760,0.000915050506591797,0.00021764678276313
761,0.000918865203857422,0.000232911401571387
762,0.000979423522949219,0.000239495705310161
763,0.000885009765625,0.000220441152954088
764,0.0010066032409668,0.00023522333999214
765,0.000895023345947266,0.000239647558798652
766,0.000934123992919922,0.000241812392913153
767,0.000949859619140625,0.000226083175489992
768,0.000994682312011719,0.000221059155716879
769,0.000933647155761719,0.000237022124976792
770,0.000842094421386719,0.000209942687982505
771,0.000925064086914063,0.000207927247236811
772,0.000933170318603516,0.000199023398754052
773,0.000913143157958984,0.000220787447617897
774,0.000929355621337891,0.000216842975633661
775,0.000912189483642578,0.000227782470235842
776,0.000933647155761719,0.000232899686590037
777,0.000933170318603516,0.000234475915015111
778,0.000967979431152344,0.000227298825401525
779,0.000860214233398438,0.00022090275853625
780,0.000805377960205078,0.000208839433366448
781,0.000851631164550781,0.000231568148968143
782,0.000840187072753906,0.00023327427418487
783,0.000863552093505859,0.000221305873601385
784,0.000884056091308594,0.000224277760770553
785,0.000842094421386719,0.000223082341505577
786,0.000859260559082031,0.000232731707056398
787,0.000848770141601563,0.000220243025824559
788,0.000897884368896484,0.00023977276552701
789,0.000837326049804688,0.000237045146891758
790,0.000884532928466797,0.000228563723433613
791,0.000878334045410156,0.000223302388073667
792,0.000924110412597656,0.00023205073435171
793,0.000847339630126953,0.000235760173066086
794,0.000948905944824219,0.0002207956861092
795,0.000917911529541016,0.000235196272825981
796,0.000855445861816406,0.000221941958737013
797,0.000946044921875,0.000222968157790102
798,0.000969409942626953,0.000235821888370455
799,0.000897407531738281,0.000220585508465202
800,0.000906467437744141,0.000240518855811699
801,0.000946998596191406,0.000234134328227754
802,0.000956058502197266,0.000244936539756218
803,0.000930309295654297,0.000237279076234192
804,0.000939369201660156,0.000226195786748865
805,0.000924110412597656,0.000247991999334425
806,0.000954627990722656,0.000247786537824973
807,0.000916957855224609,0.000248299872822729
808,0.000887870788574219,0.000238021519957417
809,0.00095367431640625,0.000238391874725174
810,0.000900745391845703,0.000239765179101685
811,0.000959396362304688,0.000233090957556296
812,0.000882625579833984,0.0002307103550484
813,0.000925064086914063,0.000238036803709959
814,0.000897407531738281,0.000239336155453083
815,0.00091552734375,0.000240575569919354
816,0.00101137161254883,0.000249760730710818
817,0.000897884368896484,0.000240575569919354
818,0.000904560089111328,0.000251292729965469
819,0.000871658325195313,0.000237033636213775
820,0.000882148742675781,0.000236672684720462
821,0.000974655151367188,0.0002460923265802
822,0.000995635986328125,0.00024790396525308
823,0.000894069671630859,0.000235713875983804
824,0.000870704650878906,0.000220515404733981
825,0.000893592834472656,0.000228476164846487
826,0.000903606414794922,0.000240265369354244
827,0.00083160400390625,0.000241394543315692
828,0.000949859619140625,0.000243655855979145
829,0.000805377960205078,0.00022957617029592
830,0.000945568084716797,0.000230714297164182
831,0.000910282135009766,0.000231013701131842
832,0.000919818878173828,0.000237811268752438
833,0.000943183898925781,0.000238288844097007
834,0.000922203063964844,0.000224569546495755
835,0.000864028930664063,0.000223786541727657
836,0.000906944274902344,0.000238212496382991
837,0.000834465026855469,0.000261724097015788
838,0.000895023345947266,0.000236599659539323
839,0.000932693481445313,0.000242173194943465
840,0.000911235809326172,0.000250633158345125
841,0.000828266143798828,0.000255734129546855
842,0.000895977020263672,0.000257265909979188
843,0.000899314880371094,0.000232817665215213
844,0.000918865203857422,0.000234526334522202
845,0.000844478607177734,0.000230990078086074
846,0.000944614410400391,0.000226252071359772
847,0.000949382781982422,0.000239385551296039
848,0.000852108001708984,0.000227838362876825
849,0.000955104827880859,0.000232027216887905
850,0.000859737396240234,0.000240359985118197
851,0.000818729400634766,0.000237872451906691
852,0.000843048095703125,0.000230931009899401
853,0.000951290130615234,0.000243125234514285
854,0.000904083251953125,0.000239165091064526
855,0.000838756561279297,0.000256777584496253
856,0.000901222229003906,0.000239731037216776
857,0.000896930694580078,0.000249760730710818
858,0.000872611999511719,0.000259350323239279
859,0.000875473022460938,0.000243875985959542
860,0.000855922698974609,0.000242124367808941
861,0.000906944274902344,0.000253512393397408
862,0.000870704650878906,0.0002593012231222
863,0.000907421112060547,0.000232829384323529
864,0.000874996185302734,0.000230761597300775
865,0.000813484191894531,0.000255143082943863
866,0.000853538513183594,0.000220956275292581
867,0.000806808471679688,0.000198835949179391
868,0.000822067260742188,0.000217010680976311
869,0.000796794891357422,0.000208730530094978
870,0.000824928283691406,0.000205006707619353
871,0.000738620758056641,0.000247632329820518
872,0.000903606414794922,0.000242844508795979
873,0.000825881958007813,0.000223094572008872
874,0.000825405120849609,0.000219639290591278
875,0.000825881958007813,0.0002352349392528
876,0.000818252563476563,0.000246107109119728
877,0.000782966613769531,0.000242915656660964
878,0.000820159912109375,0.000258296134975448
879,0.000736236572265625,0.000261313723728991
880,0.000789165496826172,0.000248314523943722
881,0.000880241394042969,0.000230923132999599
882,0.000874042510986328,0.000243218737750024
883,0.000805377960205078,0.000239674123267361
884,0.000760078430175781,0.00021999098179412
885,0.000836849212646484,0.000258162297297495
886,0.000876903533935547,0.0002539783499209
887,0.000759601593017578,0.000236699583055433
888,0.000745296478271484,0.000226095243664809
889,0.000769615173339844,0.000245300161983838
890,0.0008392333984375,0.000260449136756166
891,0.000819683074951172,0.000268692555584882
892,0.000795841217041016,0.000244943966013773
893,0.000823020935058594,0.000235879731803436
894,0.000842571258544922,0.000237478309467487
895,0.000794887542724609,0.000253232407942991
896,0.000806331634521484,0.000248087334336877
897,0.000834465026855469,0.000246948251144401
898,0.000802993774414063,0.000265073428845989
899,0.000828742980957031,0.000242154416441468
900,0.000849246978759766,0.000269355176950119
901,0.000905513763427734,0.000273383680224135
902,0.000873088836669922,0.0002593994140625
903,0.000881671905517578,0.000264358795738352
904,0.000819683074951172,0.000249140912751396
905,0.00078582763671875,0.00023622649496189
906,0.000859737396240234,0.000244084739249174
907,0.000705718994140625,0.000257661551750774
908,0.000864028930664063,0.000270534392713886
909,0.000786781311035156,0.000247793878669538
910,0.000825881958007813,0.000242702150495263
911,0.000905513763427734,0.000237531920632123
912,0.00084686279296875,0.000260930591105607
913,0.000814914703369141,0.000281190027193945
914,0.000837802886962891,0.000235149864721183
915,0.000981807708740234,0.000246815629822649
916,0.000816822052001953,0.000243001755152734
917,0.000761985778808594,0.000253397564994553
918,0.000772953033447266,0.000249359847952335
919,0.000829219818115234,0.00023545521663635
920,0.000777244567871094,0.000239199313729231
921,0.000841617584228516,0.000251603794133163
922,0.000896930694580078,0.000253074330778231
923,0.000786781311035156,0.000264234913033278
924,0.000772953033447266,0.000239184104260548
925,0.000810146331787109,0.000232747338173821
926,0.000819206237792969,0.000212491820934875
927,0.000782489776611328,0.000275088344293819
928,0.000802516937255859,0.000275986163211273
929,0.000838279724121094,0.000256465703033014
930,0.000731468200683594,0.000232680898672708
931,0.000789642333984375,0.000261174467804511
932,0.000762939453125,0.000258260921258365
933,0.000833034515380859,0.000281131801089929
934,0.000638961791992188,0.000287674715440412
935,0.000806808471679688,0.000260888760781063
936,0.000804424285888672,0.00025190003245989
937,0.000758171081542969,0.000233858366125759
938,0.000863075256347656,0.000278440238395839
939,0.000827789306640625,0.000275847720181136
940,0.00074005126953125,0.000273117406000805
941,0.000765800476074219,0.000241567793911263
942,0.000709056854248047,0.000272103187562973
943,0.000827789306640625,0.00029655437896385
944,0.000586032867431641,0.000270305690583143
945,0.000750064849853516,0.000249002154226151
946,0.000639915466308594,0.000261626778551873
947,0.000777244567871094,0.000250734743833701
948,0.000640392303466797,0.000232528406910641
949,0.000784397125244141,0.000252390588002358
950,0.000895977020263672,0.000244423583088989
951,0.000849723815917969,0.000231198664815778
952,0.000837326049804688,0.000283284617488553
953,0.000712871551513672,0.000255264252126732
954,0.000855445861816406,0.000257103237873148
955,0.000749588012695313,0.00026565607630689
956,0.000881671905517578,0.000281971677352512
957,0.000884532928466797,0.000264000753760786
958,0.000777721405029297,0.000288489239261774
959,0.000774860382080078,0.00029071272016812
960,0.000798225402832031,0.000274253918543785
961,0.000763893127441406,0.000246469004381519
962,0.000881671905517578,0.000279151403449641
963,0.000569343566894531,0.000286832513363424
964,0.00090789794921875,0.000274306973420433
965,0.000710964202880859,0.000253476515109481
966,0.000879764556884766,0.000299908966232314
967,0.000838756561279297,0.000268821150626341
968,0.000901699066162109,0.000309337609357371
969,0.000856399536132813,0.000318258709145637
970,0.000736236572265625,0.000299028227930922
971,0.000926971435546875,0.000250995774869632
972,0.000885009765625,0.000260302430419086
973,0.000722408294677734,0.000268225034046127
974,0.000709056854248047,0.000267015184327378
975,0.000679969787597656,0.000276499773292913
976,0.000718116760253906,0.000321957963328233
977,0.000908374786376953,0.000294714682395219
978,0.000919818878173828,0.000320457276039389
979,0.000982284545898438,0.000310874423216821
980,0.000678062438964844,0.00029844978323469
981,0.000935077667236328,0.000268997023167644
982,0.000796794891357422,0.000255997168404164
983,0.000800609588623047,0.000297912958727561
984,0.00106334686279297,0.000275860908225041
985,0.000776767730712891,0.000299241057272821
986,0.000949382781982422,0.000244423583088989
987,0.00108861923217773,0.000271567866982387
988,0.000871181488037109,0.000281506824703912
989,0.000627040863037109,0.000266087097664691
990,0.00120782852172852,0.000401223830565693
991,0.000704288482666016,0.000269692621868275
992,0.000868797302246094,0.000287497614767712
993,0.000816822052001953,0.00032209352933866
994,0.000676631927490234,0.000309743082409636
995,0.000988960266113281,0.00024840241252267
996,0.00079345703125,0.000266100769448781
997,0.000791549682617188,0.000344259256373197
998,0.00119829177856445,0.000393607628837155
999,0.000738143920898438,0.000324703347393163
1000,0.000809192657470703,0.000270668833110155
1001,0.000975131988525391,0.00033179095633033
1002,0.000695228576660156,0.000331022539518992
1003,0.000989437103271484,0.000314423399388018
1004,0.000995159149169922,0.000360604928530776
1005,0.000658512115478516,0.000349477072941392
1006,0.00120925903320312,0.000356760881466719
1007,0.000938892364501953,0.00036660808644818
1008,0.000940799713134766,0.000278760160925981
1009,0.000782489776611328,0.000335785463009037
1010,0.000847339630126953,0.000313455788943087
1011,0.00106143951416016,0.000313432576013893
1012,0.000850200653076172,0.000387919263992576
1013,0.000845909118652344,0.000380266198371984
1014,0.00120830535888672,0.00049580793050616
1015,0.000883102416992188,0.000457453622722052
1016,0.000855445861816406,0.000354510388944796
1017,0.000970840454101563,0.000366717227005976
1018,0.00102853775024414,0.00044144305723465
1019,0.00063323974609375,0.00035743326614551
1020,0.00125408172607422,0.000316975864529555
1021,0.00162172317504883,0.000465041168248978
1022,0.000977993011474609,0.000364967061586187
1023,0.00170326232910156,0.000406126437400872
1024,0.0010533332824707,0.000470175945994407
1025,0.00119686126708984,0.000515181892005322
1026,0.00133419036865234,0.000428894812747584
1027,0.000730514526367188,0.000586856181453138
1028,0.00102472305297852,0.00053968192789435
1029,0.00147867202758789,0.000373966818450808
1030,0.00128889083862305,0.000413644073153644
1031,0.000750541687011719,0.000466751243044815
1032,0.00132846832275391,0.000574539506944713
1033,0.00111770629882812,0.000692554059931043
1034,0.000850677490234375,0.000682223172183477
1035,0.00141334533691406,0.000550718637045835
1036,0.00110673904418945,0.00063241192124788
1037,0.00141048431396484,0.000665290202532704
1038,0.00118827819824219,0.000657645400274564
1039,0.00129365921020508,0.000505184609103542
1040,0.000623703002929688,0.000747388665926966
1041,0.00178861618041992,0.00063912973047378
1042,0.00143098831176758,0.00045972246064249
1043,0.000662326812744141,0.000626168351095068
1044,0.00124073028564453,0.000603916096298615
1045,0.00142526626586914,0.000852923997843018
1046,0.00114059448242187,0.000841346162033605
1047,0.00183200836181641,0.00076102971432724
1048,0.001678466796875,0.000732938266548003
1049,0.00173568725585937,0.000721714107998564
1050,0.000860691070556641,0.000690744668099358
1051,0.00142574310302734,0.000892378288035488
1052,0.00192022323608398,0.000773019952483541
1053,0.00124835968017578,0.00101051323366147
1054,0.00152015686035156,0.000865843847777995
1055,0.000894546508789063,0.000797007028544084
1056,0.00166893005371094,0.00128502651040909
1057,0.00221014022827148,0.000810082199001084
1058,0.00133657455444336,0.00083315992475848
1059,0.00198698043823242,0.000777131639947623
1060,0.00192880630493164,0.00097387659737979
1061,0.00149059295654297,0.00100354817977256
1062,0.00122737884521484,0.00127276046576793
1063,0.00343942642211914,0.00143014012921022
1064,0.0014948844909668,0.00140443041754078
1065,0.00221872329711914,0.00127803175738822
1066,-0.00066375732421875,0.00112250667516671
1067,0.00144433975219727,0.00105908527787073
1068,0.000922203063964844,0.00163119238463046
1069,0.00148916244506836,0.00112240296023762
1070,0.00182485580444336,0.000987321476175738
1071,-0.000537872314453125,0.00108009163501423
1072,-0.000103473663330078,0.00167808528378975
1073,0.000717639923095703,0.00184208409162326
1074,-0.0001983642578125,0.00128986416799973
1075,0.00230789184570312,0.00133845327895066
1076,0.00146770477294922,0.00191048935753118
1077,0.00293302536010742,0.00148559808534981
1078,-0.00110483169555664,0.00145006673737387
1079,0.00148391723632812,0.0014324988229815
1080,0.00218343734741211,0.00203068055827441
1081,0.00204181671142578,0.00255127683209556
1082,0.000799655914306641,0.00245851245863316
1083,0.00318098068237305,0.00156251788129112
1084,0.0023651123046875,0.00192094155453735
1085,0.00133466720581055,0.00187921759985907
1086,0.00272464752197266,0.0016548225328823
1087,-0.00100898742675781,0.00151681113038694
1088,0.00509309768676758,0.0022671500367869
1089,0.00298023223876953,0.002750478735348
1090,0.00000810623168945313,0.0023395261851527
1091,-0.002197265625,0.00180998441195823
1092,0.00359201431274414,0.00203251423373875
1093,0.00333881378173828,0.00248535650886088
1094,-0.00000619888305664063,0.0033665605700452
1095,0.00441837310791016,0.00267999248048098
1096,0.00233650207519531,0.00285139370771437
1097,0.00214481353759766,0.00228408323673903
1098,0.000236988067626953,0.0022647353596063
1099,-0.000128269195556641,0.00268242394327951
1100,0.00188446044921875,0.00321196603660483
