Wavelength (nm),Absorbance (AU),Std.Dev.
190,1.23223352432251,0.637102070198773
191,0.807076930999756,0.301642435972937
192,0.720904350280762,0.115068736887933
193,0.969440937042236,0.101860196963003
194,0.82866382598877,0.147428597447086
195,0.884660243988037,0.192548806084612
196,1.16464996337891,0.204533316512192
197,1.12538433074951,0.172500858028324
198,1.18181180953979,0.224728229423029
199,1.12754344940186,0.147017259894991
200,1.24711894989014,0.152281136972819
201,1.32758522033691,0.088603876736045
202,1.82377910614014,0.0520517889501423
203,1.77519655227661,0.0282491909012509
204,1.75800848007202,0.0131940447038475
205,1.79579401016235,0.00643508562162949
206,1.8189959526062,0.00425531489061018
207,1.82502603530884,0.00468074391179747
208,1.83211374282837,0.00320681522213303
209,1.84627151489258,0.00222276095393434
210,1.8675971031189,0.00305297827158198
211,1.8856635093689,0.0031028288891087
212,1.8989577293396,0.00330992645031414
213,1.91764879226685,0.00495259958482895
214,1.93496751785278,0.00455080433459014
215,1.943039894104,0.00333627063508297
216,1.94329977035522,0.00397783490641793
217,1.94459629058838,0.0049053625105939
218,1.93728733062744,0.00577242228831126
219,1.92367172241211,0.00477275799224306
220,1.90873861312866,0.00288411296158423
221,1.87870311737061,0.00323673410119669
222,1.83768224716187,0.00336240842173353
223,1.79475212097168,0.00204888665012959
224,1.74933576583862,0.00188017756145442
225,1.70335149765015,0.00187490721314046
226,1.65670680999756,0.00203800536116601
227,1.60091495513916,0.00162990725014973
228,1.54674196243286,0.00138515014313601
229,1.49351263046265,0.00144027935472052
230,1.43925809860229,0.000970538753853851
231,1.39152526855469,0.000588638814131929
232,1.34627103805542,0.000661847227239262
233,1.30129146575928,0.000800686691097667
234,1.26294374465942,0.00093942293507213
235,1.22779369354248,0.00074085702978614
236,1.19378232955933,0.000435903238224265
237,1.16506385803223,0.000373470356874406
238,1.14019632339478,0.000457580847789062
239,1.11766195297241,0.000422442200073663
240,1.09685277938843,0.000374336302930344
241,1.0800609588623,0.000499128028375126
242,1.06640386581421,0.000499521461421635
243,1.05394697189331,0.000421286641234654
244,1.04476118087769,0.000584445982239125
245,1.03952693939209,0.000419469287295027
246,1.03800678253174,0.000293675949951172
247,1.03722476959229,0.000513455984668912
248,1.04001045227051,0.00033980260351899
249,1.04580783843994,0.000418140241388972
250,1.05418491363525,0.000406054769082953
251,1.06468296051025,0.000600617997158938
252,1.07712125778198,0.000859806023142134
253,1.09138917922974,0.000570893374781782
254,1.10574722290039,0.000638583056809781
255,1.12001037597656,0.000513144137701385
256,1.13380575180054,0.00060375945248964
257,1.14831876754761,0.00074483368356047
258,1.16286325454712,0.00083614126511712
259,1.17318964004517,0.0010178881884862
260,1.17683458328247,0.000948625551902438
261,1.17824459075928,0.00117831546530161
262,1.17581987380981,0.00118038840187697
263,1.17054843902588,0.00111271521751541
264,1.16169548034668,0.00100012021534265
265,1.14812326431274,0.000991469100631299
266,1.12636470794678,0.00111720493776544
267,1.09372997283936,0.000870102259318417
268,1.05579328536987,0.000633848426313405
269,1.01202058792114,0.000642456631639364
270,0.970929622650147,0.000512235867040451
271,0.933021068572998,0.000519485580079046
272,0.897246360778809,0.000528827672175685
273,0.856231689453125,0.000527187849771387
274,0.809831142425537,0.000506105534300617
275,0.759234428405762,0.000519275446349659
276,0.706580638885498,0.000419859382503757
277,0.657723903656006,0.000327597885843614
278,0.615012645721436,0.00039629729383652
279,0.578456401824951,0.000355146061841983
280,0.548190116882324,0.000273164022726746
281,0.521947860717773,0.000199548232347526
282,0.49965763092041,0.000169437627922974
283,0.480199813842773,0.000179437820517764
284,0.463438034057617,0.000207809112960867
285,0.448707103729248,0.000215483972731883
286,0.435861110687256,0.000224533094016621
287,0.424677848815918,0.000179300916668793
288,0.415257930755615,0.000218485099989116
289,0.407515525817871,0.000243061631768089
290,0.400903224945068,0.000219021433997477
291,0.395490169525146,0.000195556726348515
292,0.391087532043457,0.000226874289314892
293,0.387836933135986,0.000231540654509542
294,0.385643005371094,0.000228185388832195
295,0.383434295654297,0.000241804870479438
296,0.382277488708496,0.000180609902756709
297,0.381793975830078,0.000241066533273458
298,0.381970405578613,0.00023481700489889
299,0.382212162017822,0.000176535394329158
300,0.383406639099121,0.00024802133708436
301,0.384922981262207,0.000310605151253589
302,0.386349201202393,0.000253261138645142
303,0.388646602630615,0.000206971496717555
304,0.391042232513428,0.000252642708524161
305,0.393791198730469,0.000292869640514003
306,0.396915435791016,0.000298022842406982
307,0.400084972381592,0.000204179867126677
308,0.403415203094482,0.000259104729609613
309,0.406709671020508,0.000269766803104204
310,0.410399913787842,0.000252419414521554
311,0.413859844207764,0.000219502599804929
312,0.417427539825439,0.000218135150325105
313,0.421046257019043,0.000287225426117568
314,0.424704074859619,0.000273835752179613
315,0.428308963775635,0.000200956173699943
316,0.431133270263672,0.00020590974723711
317,0.434606075286865,0.000263373009085627
318,0.43768310546875,0.00032770891715873
319,0.440369606018066,0.000217918233193947
320,0.442776679992676,0.000224358850425662
321,0.445221424102783,0.000269490205621599
322,0.446959972381592,0.000233628797523337
323,0.448266506195068,0.000281293510508587
324,0.449557304382324,0.000207804736327589
325,0.450899600982666,0.00026646964246761
326,0.451247215270996,0.000311855876086988
327,0.450908660888672,0.000197030129296196
328,0.450605392456055,0.000263518005968789
329,0.450339317321777,0.00029493062451628
330,0.448607444763184,0.000247051351841227
331,0.447028160095215,0.000254278975415666
332,0.445243835449219,0.000275933431199669
333,0.442773342132568,0.000290305730300121
334,0.440390586853027,0.000212041929996985
335,0.436994075775147,0.000195123722816111
336,0.433613300323486,0.000215656952287332
337,0.429966449737549,0.000266496946083899
338,0.425417423248291,0.000222514924363554
339,0.420875072479248,0.000296928301766382
340,0.415778160095215,0.000258711294869152
341,0.410534381866455,0.000215365760512241
342,0.404981136322022,0.000221761578083909
343,0.399430274963379,0.000254493490491709
344,0.393182754516602,0.000225773204910515
345,0.386416435241699,0.000257647432149056
346,0.379910945892334,0.000253698878702817
347,0.373232841491699,0.000211634061728044
348,0.36575174331665,0.000241009934698613
349,0.358624935150146,0.000245537338893953
350,0.351265430450439,0.00020186381701096
351,0.343667030334473,0.00021346972276562
352,0.335577487945557,0.000251394048928763
353,0.327672481536865,0.000241484950438483
354,0.319945335388184,0.000253956863053791
355,0.31204080581665,0.000227802433467599
356,0.303471565246582,0.000208268147629335
357,0.295274257659912,0.000222604827736049
358,0.286428451538086,0.000292521622314666
359,0.278359889984131,0.000393228497462514
360,0.269711017608643,0.000317342920730734
361,0.261500358581543,0.000382659962610986
362,0.2538743019104,0.000253763399378891
363,0.245924472808838,0.00028278976314126
364,0.238206386566162,0.00026644233605339
365,0.231620788574219,0.00026644233605339
366,0.225257873535156,0.000245047909988753
367,0.219103336334229,0.000247698430720911
368,0.212664604187012,0.00027806762049172
369,0.206005573272705,0.000239715861484836
370,0.199849128723145,0.000214993813244716
371,0.193396091461182,0.00025572701663352
372,0.186578273773193,0.000241477417804377
373,0.180450916290283,0.000222285915338601
374,0.174477100372314,0.00024930878026889
375,0.168243885040283,0.000223566971689991
376,0.162050724029541,0.000220713287357969
377,0.156570434570312,0.000232895781465302
378,0.150737285614014,0.000224759813390374
379,0.14492130279541,0.00020326019365025
380,0.139885902404785,0.000303358388550889
381,0.134836196899414,0.000275986163211273
382,0.129813671112061,0.000229881013030251
383,0.124820709228516,0.000225813484871035
384,0.120536804199219,0.000234693029570058
385,0.115734577178955,0.00023826975946198
386,0.111021995544434,0.000193010111094261
387,0.106481552124023,0.000157676717265628
388,0.102062225341797,0.0002319958565611
389,0.098362922668457,0.000258197524465196
390,0.0944700241088867,0.000211900338429483
391,0.0906810760498047,0.00023494091480753
392,0.0868310928344727,0.000184505790389789
393,0.0829825401306152,0.000181799442965121
394,0.0800304412841797,0.00022070504579088
395,0.0766730308532715,0.000216914266247107
396,0.0734004974365234,0.000239222126119128
397,0.0700068473815918,0.000257661551750774
398,0.0668554306030273,0.000183977593258476
399,0.0639095306396484,0.000167461516876166
400,0.0618033409118652,0.000222347280169947
401,0.0592789649963379,0.000168103866340982
402,0.056455135345459,0.000197085513732791
403,0.0539817810058594,0.000198446770159577
404,0.0513520240783691,0.000258514352959898
405,0.0489053726196289,0.000221999321845071
406,0.0472722053527832,0.000250408072391911
407,0.0452370643615723,0.000245559562484431
408,0.0429511070251465,0.000198189952268447
409,0.0410394668579102,0.000194624344159303
410,0.0391659736633301,0.000238502487676095
411,0.0372395515441895,0.000191054077059231
412,0.0356879234313965,0.000242923144697731
413,0.0338706970214844,0.000231642760334095
414,0.032313346862793,0.000161827038664278
415,0.0308642387390137,0.000167553819575463
416,0.0296220779418945,0.000204455852161016
417,0.0280256271362305,0.000209986004608296
418,0.0271058082580566,0.000284859820424328
419,0.0256762504577637,0.00024628443038617
420,0.0241336822509766,0.000205869990777234
421,0.0232491493225098,0.000200688971728175
422,0.0220122337341309,0.000174748945938818
423,0.0208926200866699,0.000200734285231367
424,0.0202150344848633,0.000273450208266447
425,0.0194563865661621,0.000231528870170647
426,0.0182452201843262,0.000168114686620752
427,0.0173735618591309,0.000176941927235552
428,0.0164380073547363,0.000193917425569502
429,0.0158085823059082,0.000184170289156312
430,0.0145244598388672,0.00022407490824739
431,0.0143885612487793,0.000228826198173354
432,0.0138983726501465,0.000226344508550283
433,0.0128250122070312,0.000195854151199241
434,0.0122518539428711,0.000190396007897396
435,0.0120029449462891,0.000212906589696897
436,0.0111136436462402,0.000214761019080067
437,0.0105423927307129,0.000219486025440137
438,0.00995254516601563,0.000202883984613964
439,0.00954246520996094,0.000203040823092213
440,0.00913906097412109,0.000202493602700754
441,0.00847434997558594,0.000206764861501025
442,0.00833940505981445,0.000171475840013451
443,0.00789880752563477,0.00022125244140625
444,0.00739717483520508,0.000207953490184462
445,0.00712299346923828,0.000223220914636894
446,0.00689840316772461,0.000244356596311203
447,0.00655508041381836,0.000194488777688421
448,0.0060582160949707,0.000188079469721595
449,0.00594758987426758,0.000249016764027802
450,0.00551557540893555,0.000225853757647812
451,0.00537919998168945,0.000171618986193878
452,0.0052647590637207,0.000191249154054338
453,0.00480985641479492,0.00016711356711123
454,0.00465822219848633,0.000169558358737468
455,0.00447273254394531,0.000220845110603054
456,0.00417470932006836,0.000185395856936994
457,0.00402450561523438,0.000180700522365188
458,0.00392580032348633,0.000198341331624264
459,0.00349807739257812,0.000161869184415615
460,0.00380182266235352,0.000187832687440646
461,0.00342512130737305,0.000195179648217894
462,0.00337553024291992,0.000207686532366167
463,0.00304317474365234,0.000206536002920929
464,0.0026702880859375,0.000196549477110744
465,0.00283002853393555,0.000179042034893174
466,0.00281953811645508,0.000180715621215384
467,0.00275802612304687,0.000218518399299652
468,0.00237464904785156,0.000167328402831317
469,0.00243330001831055,0.000200747877287802
470,0.00253200531005859,0.000190118748254505
471,0.00225973129272461,0.000192112714305809
472,0.00204181671142578,0.000182956396455688
473,0.00198888778686523,0.000204900206010736
474,0.00203704833984375,0.000184683161944689
475,0.00189733505249023,0.000170232868984197
476,0.00205230712890625,0.000178798039047744
477,0.001861572265625,0.00017236195761656
478,0.0017237663269043,0.000143038431238195
479,0.00163888931274414,0.000192240494464203
480,0.00157070159912109,0.000197647707880842
481,0.00162887573242187,0.000164433475877047
482,0.00156021118164062,0.000184771783871759
483,0.00146627426147461,0.000204215499056991
484,0.00137615203857422,0.00019446539460716
485,0.0010838508605957,0.000198620850325696
486,0.00132179260253906,0.000176674441175986
487,0.00172185897827148,0.000148341579839895
488,0.00159502029418945,0.00018057968611493
489,0.00140619277954102,0.000206112827159819
490,0.00132417678833008,0.000193706255490998
491,0.00116920471191406,0.000164660093995336
492,0.00125598907470703,0.000236484310710071
493,0.00124454498291016,0.000224237204946499
494,0.00123262405395508,0.000205458723562882
495,0.00119638442993164,0.00021080301498941
496,0.000978469848632813,0.000220032320273128
497,0.00108861923217773,0.00018643784088097
498,0.00131464004516602,0.000195854151199241
499,0.000990867614746094,0.000219780034605421
500,0.00107622146606445,0.000188832331123961
501,0.00103855133056641,0.00016489191644681
502,0.000974655151367188,0.000203894587515315
503,0.00115203857421875,0.000178319246755321
504,0.00112438201904297,0.000177306496952264
505,0.000993251800537109,0.000206364192426437
506,0.000981330871582031,0.000203287039083062
507,0.00095367431640625,0.000199251757136021
508,0.000966072082519531,0.000186642615892798
509,0.00107717514038086,0.000206170183057734
510,0.00106477737426758,0.000198995978138236
511,0.0010075569152832,0.00018014602396018
512,0.00106334686279297,0.000161038293353951
513,0.00101375579833984,0.000204718137588482
514,0.00105476379394531,0.00020450477834595
515,0.00108671188354492,0.000169182468830242
516,0.00110912322998047,0.000158203617841341
517,0.0010380744934082,0.000191239642720052
518,0.000965118408203125,0.000182039415934567
519,0.00108861923217773,0.000202043956094648
520,0.0010991096496582,0.000189495830601622
521,0.000895500183105469,0.000172754621194273
522,0.000827789306640625,0.000181328575956728
523,0.000986099243164063,0.000203407799685887
524,0.00103187561035156,0.000199320213633352
525,0.0010833740234375,0.000188485230298435
526,0.00104570388793945,0.000181529094182274
527,0.00109958648681641,0.000183987480008799
528,0.00109291076660156,0.00015245073830292
529,0.0011138916015625,0.000182628009087918
530,0.00113630294799805,0.000202565453533389
531,0.00106334686279297,0.000202345329781573
532,0.00104188919067383,0.000202547493214735
533,0.00105142593383789,0.000200217103353693
534,0.00109148025512695,0.000201575259633734
535,0.00114202499389648,0.000202839151346094
536,0.00105476379394531,0.000203099046536928
537,0.000996589660644531,0.000199023398754052
538,0.00104999542236328,0.000210984143204114
539,0.00110197067260742,0.000198547572016496
540,0.00104141235351562,0.000226211869495285
541,0.00110578536987305,0.000225297357521004
542,0.00112247467041016,0.000194151789612357
543,0.00121212005615234,0.000187367274326215
544,0.00113487243652344,0.000195710142482359
545,0.00102043151855469,0.000198959411438527
546,0.00113677978515625,0.00022323313754804
547,0.0010981559753418,0.000208163314662477
548,0.00109672546386719,0.000189303751255111
549,0.00111293792724609,0.000198515504250477
550,0.00107812881469727,0.000213554916416602
551,0.00110530853271484,0.000178772603662588
552,0.001129150390625,0.000201642927318219
553,0.00106048583984375,0.000241947756726349
554,0.00110816955566406,0.00025317493675747
555,0.00100946426391602,0.000206350970309337
556,0.00109624862670898,0.000200924490349725
557,0.00110483169555664,0.000210349512101295
558,0.00101900100708008,0.000185582179550563
559,0.00107860565185547,0.000202066462188543
560,0.00108242034912109,0.000192457998598147
561,0.00107526779174805,0.000180599831104519
562,0.00114965438842773,0.000190782541038095
563,0.00118255615234375,0.000215129141202249
564,0.0010066032409668,0.000209304899118483
565,0.00112485885620117,0.000213559175207026
566,0.00109767913818359,0.000203148299494848
567,0.00116920471191406,0.000188248642916437
568,0.00112581253051758,0.000214523732742348
569,0.00105714797973633,0.000218472611439153
570,0.00109767913818359,0.000229223314501003
571,0.00108957290649414,0.000218226858049677
572,0.00107336044311523,0.000206346562748696
573,0.00115823745727539,0.000229786040494476
574,0.0010218620300293,0.000227202773493696
575,0.00107955932617187,0.000189678125815112
576,0.00106906890869141,0.000201561723370775
577,0.00112009048461914,0.000204273387687535
578,0.00107812881469727,0.000211100500703977
579,0.00131607055664062,0.000194090882185214
580,0.00114917755126953,0.000211376055217465
581,0.00110483169555664,0.00022235137055655
582,0.0010986328125,0.000199912521331972
583,0.00144481658935547,0.000199639366912173
584,0.001129150390625,0.000201354053387643
585,0.000948429107666016,0.000208150206829248
586,0.00124645233154297,0.000214515253375845
587,0.00110673904418945,0.000206650463892647
588,0.00106954574584961,0.000204380215928614
589,0.00112485885620117,0.000211255544343806
590,0.0011444091796875,0.000215745497861102
591,0.00114202499389648,0.000211401870038366
592,0.00106191635131836,0.000227466818643647
593,0.000937938690185547,0.000224775998880863
594,0.00114774703979492,0.00020899180260944
595,0.00112724304199219,0.000201868322447178
596,0.00110054016113281,0.000196359665886255
597,0.000982284545898438,0.000205878826209558
598,0.00106048583984375,0.000194474748177046
599,0.000989913940429688,0.000212876684985787
600,0.00102853775024414,0.000208617210386004
601,0.00102806091308594,0.00020647874864089
602,0.0010380744934082,0.000212380508144525
603,0.000962257385253906,0.000217111242001623
604,0.00107145309448242,0.000202444190460709
605,0.00105762481689453,0.000217132186353164
606,0.00101995468139648,0.000211685625294568
607,0.00100612640380859,0.000204001614120393
608,0.00106048583984375,0.000186788746313618
609,0.00103664398193359,0.00018029741992266
610,0.00100183486938477,0.000185572377761159
611,0.00100278854370117,0.000193945564207911
612,0.000973701477050781,0.00019875359839964
613,0.000975608825683594,0.00023300119686008
614,0.00104808807373047,0.000208822012659597
615,0.00104093551635742,0.000199616587171697
616,0.000991344451904297,0.000196118665450225
617,0.000995159149169922,0.000210949654582191
618,0.000974178314208984,0.000223094572008872
619,0.000929355621337891,0.000208830723194677
620,0.000942230224609375,0.000200435026796001
621,0.000977516174316406,0.000202448682980886
622,0.000879764556884766,0.000215564151247332
623,0.000955581665039063,0.000227270814455108
624,0.000899791717529297,0.000206760462763399
625,0.000915050506591797,0.000225353866524621
626,0.000946521759033203,0.000196058369053022
627,0.00107049942016602,0.000174248590020084
628,0.00109720230102539,0.000183542049006949
629,0.00101804733276367,0.000195886654644465
630,0.000910758972167969,0.00023013803349956
631,0.000902652740478516,0.000205454296861091
632,0.000970363616943359,0.000203219918851733
633,0.000920772552490234,0.000207327129423991
634,0.000948429107666016,0.000220052986600487
635,0.00100231170654297,0.000224913528522875
636,0.00100231170654297,0.000211014316124283
637,0.000991344451904297,0.000191695654438053
638,0.00087738037109375,0.00020126821412475
639,0.000942707061767578,0.000222870239472718
640,0.000969886779785156,0.000208673877932731
641,0.000883579254150391,0.000184564933181261
642,0.000882148742675781,0.000194095568050479
643,0.00101280212402344,0.000231929201787222
644,0.000926971435546875,0.000221576945982894
645,0.000918865203857422,0.000209087520729529
646,0.000976085662841797,0.000198020086284796
647,0.000874519348144531,0.000226103288756834
648,0.000897407531738281,0.00020931358955836
649,0.000960826873779297,0.000213405805208241
650,0.00100851058959961,0.000218988211178326
651,0.000824451446533203,0.000232891876275087
652,0.000983238220214844,0.000216759074305067
653,0.00105953216552734,0.00020350167505583
654,0.0010223388671875,0.000220725649131614
655,0.000924587249755859,0.000228109646612836
656,0.000505447387695313,0.000244899405090568
657,0.00194787979125977,0.00020791412452084
658,0.00127315521240234,0.000222073052640196
659,0.000961780548095703,0.000240908023754988
660,0.000963687896728516,0.000231619201446637
661,0.000974655151367188,0.000218126811347319
662,0.000931262969970703,0.000211896046298948
663,0.000863075256347656,0.000232207456575601
664,0.00100612640380859,0.000244483111483221
665,0.000902175903320313,0.000212718547387403
666,0.000889778137207031,0.000215876141615615
667,0.00105524063110352,0.000205286011460475
668,0.000922203063964844,0.000234076053481787
669,0.00105047225952148,0.000225014599632332
670,0.000983715057373047,0.000194652380606712
671,0.000999927520751953,0.000222400449327826
672,0.00095367431640625,0.000242334629992244
673,0.00102043151855469,0.000224775998880863
674,0.000864505767822266,0.000208329275831805
675,0.000947952270507813,0.000211990453096369
676,0.000867843627929688,0.000228460241498044
677,0.000945568084716797,0.000223940924923872
678,0.000886917114257813,0.000211655548074052
679,0.000909328460693359,0.000217441926882484
680,0.000901699066162109,0.000215905630877635
681,0.000827312469482422,0.000204081847240242
682,0.00090789794921875,0.000206800048033763
683,0.000932693481445313,0.000212384790484465
684,0.000880718231201172,0.000213312024812713
685,0.000930309295654297,0.00023372609988465
686,0.000944137573242188,0.000216746486304574
687,0.000971794128417969,0.000218122641738875
688,0.000978946685791016,0.000233523665435229
689,0.000958919525146484,0.000233737773446013
690,0.000961780548095703,0.000205927414311122
691,0.000977516174316406,0.000196850022259936
692,0.00101137161254883,0.000225014599632332
693,0.000910758972167969,0.000227862312668885
694,0.000887393951416016,0.000216040387672266
695,0.000939369201660156,0.00020853872220759
696,0.000942707061767578,0.000221334639440592
697,0.000937938690185547,0.000227690616825684
698,0.000929355621337891,0.0002082725145245
699,0.000894069671630859,0.000192500525009768
700,0.000937938690185547,0.0002082725145245
701,0.000879287719726563,0.000225551536546241
702,0.000911235809326172,0.000215817151003332
703,0.000880718231201172,0.000208420934519732
704,0.000847339630126953,0.000197799502226037
705,0.000850200653076172,0.000205330310464349
706,0.000871658325195313,0.000213512323840256
707,0.000872135162353516,0.000210824586032187
708,0.000915050506591797,0.000207248152671932
709,0.000863075256347656,0.000227582741605256
710,0.000904083251953125,0.000217169881095738
711,0.000843524932861328,0.000219108619930357
712,0.00084686279296875,0.000220404017683652
713,0.0009002685546875,0.000219539887550656
714,0.000846385955810547,0.000233282071697087
715,0.000829696655273438,0.000231410993775987
716,0.000834465026855469,0.000216574376969746
717,0.000856876373291016,0.000200738816019103
718,0.000920772552490234,0.000231226199939417
719,0.000813484191894531,0.000225982582303482
720,0.000854015350341797,0.000203814280679193
721,0.000865936279296875,0.000214192788712024
722,0.000910758972167969,0.000231579931308269
723,0.0008697509765625,0.000221203107924332
724,0.000860214233398438,0.00021799751640108
725,0.000899314880371094,0.000212234857174796
726,0.000920295715332031,0.000221268883455944
727,0.000896453857421875,0.000217713632732537
728,0.000761985778808594,0.000210470541750033
729,0.000875473022460938,0.000225853757647812
730,0.000921249389648438,0.000233262577427815
731,0.000943183898925781,0.000219722092106166
732,0.000885009765625,0.000231878217561314
733,0.000921249389648438,0.000212940761367079
734,0.000921726226806641,0.000213993126605195
735,0.000895977020263672,0.000222097624132624
736,0.000981330871582031,0.000218996517355619
737,0.000948905944824219,0.000209968679030328
738,0.000934600830078125,0.000217634246107846
739,0.000840187072753906,0.000218651545828964
740,0.000817298889160156,0.000217169881095738
741,0.000870704650878906,0.00021764678276313
742,0.000881671905517578,0.000227434829497668
743,0.000871658325195313,0.000232258368528576
744,0.000898838043212891,0.000216855558033155
745,0.000835895538330078,0.000220775089304511
746,0.000837326049804688,0.0002215358957304
747,0.000939846038818359,0.000234662025503795
748,0.000834941864013672,0.000232766875594482
749,0.000924587249755859,0.000224638385039532
750,0.000882148742675781,0.000236422768323105
751,0.000908374786376953,0.000232289693414892
752,0.000888824462890625,0.000241115574624969
753,0.000883579254150391,0.000250843539776208
754,0.000922203063964844,0.000231489584708386
755,0.000868797302246094,0.000236257293722772
756,0.000899314880371094,0.000214824533415907
757,0.000891685485839844,0.000237121870465392
758,0.000879287719726563,0.000232856726615957
759,0.000884532928466797,0.000218272697462768
760,0.000870704650878906,0.000212855321905562
761,0.000897407531738281,0.000229971991573095
762,0.000914573669433594,0.000237305905835435
763,0.000859737396240234,0.000218085111675496
764,0.000960350036621094,0.000232969967641757
765,0.000943183898925781,0.000237202403509072
766,0.000965118408203125,0.000245225997156146
767,0.000922679901123047,0.000228360695414636
768,0.000974655151367188,0.000219846235905046
769,0.000916004180908203,0.00023705665701082
770,0.000867366790771484,0.000211788714765535
771,0.000893592834472656,0.000210185146106756
772,0.000878334045410156,0.00019782249120837
773,0.000874996185302734,0.00022094392642243
774,0.000899314880371094,0.000220770969712984
775,0.000890731811523438,0.000226207848915878
776,0.000859737396240234,0.000233250880084206
777,0.000870227813720703,0.000233982783699834
778,0.000939369201660156,0.000226364598596792
779,0.000835895538330078,0.000218851113738921
780,0.000850200653076172,0.000208599771120737
781,0.000815868377685547,0.000230517108791918
782,0.000854969024658203,0.000235486116271212
783,0.000876903533935547,0.000221474306085418
784,0.000858783721923828,0.000224585745698437
785,0.000813007354736328,0.000223127183406796
786,0.000867366790771484,0.000230410556901999
787,0.000806331634521484,0.000220131500949913
788,0.000882625579833984,0.000240212368247935
789,0.000871658325195313,0.000236976074437212
790,0.000823497772216797,0.000228702952099358
791,0.000817298889160156,0.000222290006854386
792,0.000874996185302734,0.000230745831665906
793,0.000800132751464844,0.000234700779946678
794,0.000897884368896484,0.000221116747845813
795,0.000875949859619141,0.000231878217561314
796,0.000841617584228516,0.000220007518117803
797,0.000970363616943359,0.00022402213650403
798,0.000895500183105469,0.000235860452235306
799,0.000917434692382813,0.000220230636960771
800,0.000901699066162109,0.000236876267555826
801,0.000966548919677734,0.0002333951063497
802,0.000921726226806641,0.000245737278854706
803,0.000929832458496094,0.000236180289290062
804,0.000897407531738281,0.000225127745404688
805,0.000952243804931641,0.000245914866793949
806,0.000893115997314453,0.000249964569512962
807,0.000893592834472656,0.000246380426120121
808,0.000882625579833984,0.000235887443189475
809,0.000945091247558594,0.000237083511782179
810,0.000893592834472656,0.000241051441619561
811,0.000901699066162109,0.000231642760334095
812,0.000859260559082031,0.000227730557643229
813,0.000901699066162109,0.000237348060509908
814,0.000861644744873047,0.000237692681574621
815,0.000893115997314453,0.000238609237731873
816,0.00100994110107422,0.00024957130274977
817,0.0008697509765625,0.00023977276552701
818,0.000892162322998047,0.000254078597941351
819,0.000868320465087891,0.000234898328148925
820,0.000816822052001953,0.000237052820366563
821,0.000907421112060547,0.000246756664133502
822,0.000950336456298828,0.000247397161363082
823,0.000873565673828125,0.000236853229225944
824,0.000819206237792969,0.000224322363708331
825,0.000946998596191406,0.000229195538754577
826,0.0008392333984375,0.000243345844493871
827,0.000893115997314453,0.000244103369254411
828,0.000914573669433594,0.000244237463342303
829,0.000810623168945313,0.000230106415703292
830,0.000925540924072266,0.000231285192737184
831,0.000829696655273438,0.000228762595587684
832,0.000910282135009766,0.000237459159689657
833,0.000940322875976563,0.000241797347811697
834,0.000891208648681641,0.00022287432026151
835,0.000874519348144531,0.000216972958575879
836,0.000883102416992188,0.000241145748960991
837,0.000899791717529297,0.000262778377606316
838,0.000895977020263672,0.000236503539421792
839,0.00093841552734375,0.000239305752943456
840,0.000916481018066406,0.000250829036377059
841,0.000818252563476563,0.000255954531817875
842,0.000832080841064453,0.000259658739948862
843,0.000930309295654297,0.000230789184570312
844,0.000841140747070313,0.00023451470021346
845,0.000875473022460938,0.000222857996657998
846,0.000939846038818359,0.000222011612011359
847,0.000967502593994141,0.000238204860265716
848,0.000774383544921875,0.000224524992661997
849,0.000977516174316406,0.00023218003782299
850,0.000873088836669922,0.000241183461572291
851,0.000826835632324219,0.000237436177917555
852,0.0008544921875,0.000231293057306707
853,0.000939846038818359,0.000248731718108893
854,0.000823497772216797,0.000239081415038946
855,0.000826358795166016,0.000256713821385734
856,0.000946521759033203,0.00023884544306728
857,0.000857353210449219,0.000250291819798649
858,0.000762939453125,0.000258303177142795
859,0.000837802886962891,0.00024221074757979
860,0.000841617584228516,0.00023919170911578
861,0.000829696655273438,0.000254128707121986
862,0.000855922698974609,0.000258929162969128
863,0.000903129577636719,0.000229683109264998
864,0.000888824462890625,0.000228965267234127
865,0.000849246978759766,0.000249155514416625
866,0.000849246978759766,0.000223188316934609
867,0.000747203826904297,0.000202021447493474
868,0.000822067260742188,0.000213397281420759
869,0.000786781311035156,0.00020683962572824
870,0.000840663909912109,0.00020588766126272
871,0.000698089599609375,0.000247727803237404
872,0.000797748565673828,0.000245589190810128
873,0.000794410705566406,0.000224160128665984
874,0.000831127166748047,0.000218526723334446
875,0.000767707824707031,0.000237325067979331
876,0.000792026519775391,0.000245085022153316
877,0.000810623168945313,0.000245114707839247
878,0.000765800476074219,0.000260197589535293
879,0.000735282897949219,0.000261167503059172
880,0.000787258148193359,0.000246815629822649
881,0.000832557678222656,0.00022676602575836
882,0.000803470611572266,0.000244095917422943
883,0.000730037689208984,0.000241940238501382
884,0.000780105590820313,0.000221235998134598
885,0.000721931457519531,0.000260867843103472
886,0.000806331634521484,0.000253088705509479
887,0.000787734985351563,0.000243958017483781
888,0.000784873962402344,0.000230875865957245
889,0.000734329223632813,0.000247580905807957
890,0.0008392333984375,0.000261390282864512
891,0.000797748565673828,0.000265916141054735
892,0.000768661499023438,0.000239016736228166
893,0.00077056884765625,0.000232895781465302
894,0.000875949859619141,0.000234824751183713
895,0.000752925872802734,0.0002601486493302
896,0.000729560852050781,0.000248592731181076
897,0.000834941864013672,0.000247132329357079
898,0.000763416290283203,0.000268475835234585
899,0.000858783721923828,0.000241334253085083
900,0.000906944274902344,0.000275768578673215
901,0.000829219818115234,0.000272977508058191
902,0.000844955444335938,0.000250952288552156
903,0.000845909118652344,0.000261223215822444
904,0.000848293304443359,0.000252837029721154
905,0.000840663909912109,0.00024656492825483
906,0.000819206237792969,0.000246129281264321
907,0.000742912292480469,0.000259315252675741
908,0.000871181488037109,0.000278335694256087
909,0.000847339630126953,0.000250531531665683
910,0.000855445861816406,0.000247470675512437
911,0.000921726226806641,0.000236145629103114
912,0.000739574432373047,0.000262445904434928
913,0.000816822052001953,0.00028362472984987
914,0.000926494598388672,0.000231403133214706
915,0.000871658325195313,0.000232884065698199
916,0.000720500946044922,0.000237941264150136
917,0.000856876373291016,0.000256897982746947
918,0.000784873962402344,0.000260029756198414
919,0.000895023345947266,0.00023498736417825
920,0.000775337219238281,0.000236937692150565
921,0.000924110412597656,0.000243420582162861
922,0.000767707824707031,0.000250313621272476
923,0.000769615173339844,0.000266080261509214
924,0.000726699829101563,0.00023540499607915
925,0.000840187072753906,0.000237822741792821
926,0.000841140747070313,0.000221314092794109
927,0.000784397125244141,0.000273157363681544
928,0.000863552093505859,0.000270903943263034
929,0.000794410705566406,0.00024621056204511
930,0.0007171630859375,0.000223961230579708
931,0.000809192657470703,0.000251972232877682
932,0.000879764556884766,0.000259700768394461
933,0.000854969024658203,0.000272176711804681
934,0.000658035278320313,0.000284521184475611
935,0.000668525695800781,0.000260826002715632
936,0.000733852386474609,0.000247654365414299
937,0.000741481781005859,0.000234642645882043
938,0.000771999359130859,0.000287415352360711
939,0.000938892364501953,0.000273277201668889
940,0.000812053680419922,0.000272036330099234
941,0.0006561279296875,0.000234351759245072
942,0.000732421875,0.000268536805511222
943,0.000659942626953125,0.000290174119263138
944,0.000582695007324219,0.000269355176950119
945,0.000730514526367188,0.000252721894455748
946,0.000700950622558594,0.000258802681240681
947,0.000754833221435547,0.000250313621272476
948,0.000666618347167969,0.00023494091480753
949,0.000819206237792969,0.000255121694172953
950,0.000982284545898438,0.000231744821171243
951,0.000856876373291016,0.000223652385652618
952,0.000887393951416016,0.000283945217115497
953,0.000700950622558594,0.000263897382147222
954,0.000988006591796875,0.000260470088058981
955,0.000702381134033203,0.000269402444683562
956,0.000903129577636719,0.000281118860317933
957,0.000914573669433594,0.000266858455269494
958,0.000681877136230469,0.000296499170105704
959,0.000763893127441406,0.000287383706703418
960,0.000923633575439453,0.000274273815325201
961,0.000889301300048828,0.000262411247587888
962,0.000910282135009766,0.000286095937022455
963,0.000751018524169922,0.000286470811655175
964,0.000890731811523438,0.000285344710274292
965,0.000632286071777344,0.000251111701565898
966,0.000826358795166016,0.000288249541153438
967,0.000967025756835938,0.000238993904233442
968,0.000733852386474609,0.00030369398860924
969,0.000810146331787109,0.000321731893038568
970,0.000866889953613281,0.00030561058540971
971,0.00102090835571289,0.00026653789626409
972,0.00081634521484375,0.000232547962724721
973,0.000936985015869141,0.000272924194741329
974,0.000823974609375,0.000280029700544178
975,0.000669479370117188,0.000260895732967571
976,0.000828742980957031,0.000316280734883743
977,0.00106287002563477,0.000262709147060655
978,0.000878334045410156,0.000301270531678973
979,0.000867843627929688,0.000323513542685962
980,0.000838756561279297,0.000302722126959098
981,0.000941276550292969,0.000250153699674389
982,0.000868797302246094,0.0002642004908619
983,0.000861644744873047,0.000302253079064031
984,0.000817298889160156,0.000269787030810386
985,0.000979423522949219,0.000273935373498715
986,0.000698089599609375,0.000246822999543312
987,0.000795364379882813,0.000258260921258365
988,0.000829219818115234,0.000285771496587037
989,0.00096893310546875,0.000302650013059565
990,0.00117301940917969,0.000388930789214319
991,0.000522136688232422,0.000268570671906311
992,0.000918865203857422,0.000292148285624233
993,0.000736236572265625,0.000296038695887614
994,0.000653266906738281,0.000288262161812441
995,0.000661373138427734,0.000234250834228542
996,0.000812053680419922,0.000247073439250355
997,0.00110387802124023,0.000347817980057138
998,0.000895977020263672,0.000397799952426939
999,0.00122404098510742,0.000330042969084239
1000,0.000834941864013672,0.000285446687390891
1001,0.000911235809326172,0.000294121570194765
1002,0.000854015350341797,0.000319114873937445
1003,0.000802040100097656,0.000333207855870224
1004,0.00118780136108398,0.000350173833505351
1005,0.000615119934082031,0.000329292569494326
1006,0.00128316879272461,0.000336580837322679
1007,0.000834941864013672,0.000377866897492669
1008,0.00122308731079102,0.000305509384920897
1009,0.000751972198486328,0.000355586264385001
1010,0.000668525695800781,0.000345951191348871
1011,0.00150060653686523,0.000319547788534751
1012,0.000668525695800781,0.000385991948187568
1013,0.00114917755126953,0.000387909885693736
1014,0.00116729736328125,0.000518532291833917
1015,0.00109672546386719,0.000514984130859375
1016,0.0011143684387207,0.000367668351254108
1017,0.00109100341796875,0.0003920981820765
1018,0.00150775909423828,0.00040096079539401
1019,0.000297069549560547,0.000314365542473482
1020,0.00144481658935547,0.000327375710242715
1021,0.00137042999267578,0.000418879120828472
1022,0.00107574462890625,0.000417948789209056
1023,0.00106906890869141,0.000388715592398539
1024,0.000951290130615234,0.000447694990364993
1025,0.00111055374145508,0.000506866908918719
1026,0.00142288208007812,0.000462058896974167
1027,0.000808238983154297,0.000521875124348837
1028,0.00120687484741211,0.000451393306361085
1029,0.000947475433349609,0.000323260426366888
1030,0.00135612487792969,0.000431785986231415
1031,0.00112533569335937,0.000564046560700253
1032,0.00132894515991211,0.000664239467153287
1033,0.000877857208251953,0.000677310215170467
1034,0.00152873992919922,0.000644322581902946
1035,0.000847339630126953,0.000370310644128028
1036,0.00167322158813477,0.000342442124844176
1037,0.00130796432495117,0.000565695295885528
1038,0.0000834465026855469,0.000544219744811736
1039,0.00134515762329102,0.000547099939985628
1040,0.00159406661987305,0.00070529615777097
1041,0.000694751739501953,0.000592507345848429
1042,0.000321865081787109,0.000610613766616194
1043,0.00171470642089844,0.000611887429933522
1044,0.000785350799560547,0.000646644635087249
1045,0.000552654266357422,0.000720745634618927
1046,0.00121831893920898,0.000787455529989579
1047,0.00208473205566406,0.000716696242302758
1048,0.00128269195556641,0.00103883108989657
1049,0.00162839889526367,0.000798630355333003
1050,0.00132131576538086,0.000768678063907516
1051,0.00180578231811523,0.000987409904903014
1052,0.00241327285766602,0.00103222634776536
1053,0.00147438049316406,0.00105484484452541
1054,0.0017390251159668,0.000764159181246882
1055,0.00158929824829102,0.000715700646945714
1056,0.00222682952880859,0.00107560934744733
1057,0.000966072082519531,0.000706780125611479
1058,0.00182914733886719,0.00111582340311497
1059,0.00214290618896484,0.00100907215418883
1060,0.000959396362304688,0.000881120752941292
1061,0.00142621994018555,0.00101387735536989
1062,0.00163459777832031,0.00162005661338987
1063,0.00228023529052734,0.00134621525861981
1064,0.00250482559204102,0.0015764995102071
1065,0.00309467315673828,0.00156883802034023
1066,0.000194072723388672,0.00109974486971298
1067,0.00124502182006836,0.00118604575851683
1068,0.000452518463134766,0.0013636569008378
1069,0.00141763687133789,0.0010870749430767
1070,0.00159883499145508,0.000915590919830334
1071,0.000731468200683594,0.00114089426037077
1072,-0.0000352859497070312,0.00122020234326344
1073,0.000777721405029297,0.00122436926585301
1074,0.000763893127441406,0.00134742537884365
1075,0.00158596038818359,0.00138085718168222
1076,0.0024871826171875,0.00192539074170853
1077,0.00104475021362305,0.00144785727892552
1078,0.000591278076171875,0.00151150610017082
1079,0.00261735916137695,0.00130513945192524
1080,0.0000619888305664063,0.00216422135152227
1081,0.00360345840454102,0.00260992208901676
1082,0.00278568267822266,0.00236496463437686
1083,-0.000156402587890625,0.00164971433698992
1084,0.00228738784790039,0.0014539952697231
1085,0.000471591949462891,0.00187049353973402
1086,0.00347709655761719,0.00200401990319098
1087,0.00198650360107422,0.00253677081344557
1088,0.0011444091796875,0.00247644082381205
1089,0.00451231002807617,0.00294743566104727
1090,0.00191211700439453,0.00223357610158496
1091,-0.00249338150024414,0.00155445052022889
1092,0.00287103652954102,0.00173886605401652
1093,0.00249814987182617,0.0018890725966153
1094,0.000978469848632813,0.00271314828746251
1095,0.004486083984375,0.00193552190801106
1096,0.000739097595214844,0.00351045015736045
1097,0.00270509719848633,0.00294988346819323
1098,0.0000257492065429687,0.00250871383952171
1099,0.000265121459960937,0.0027966492417929
1100,0.00348138809204102,0.00228143135747764
