Wavelength (nm),Absorbance (AU),Std.Dev.
190,0.0454692840576172,0.0434954184388528
191,-0.00434398651123047,0.035628641845873
192,-0.0185976028442383,0.0293451547174735
193,0.050816535949707,0.0256039388681143
194,0.019230842590332,0.0255590865787156
195,0.00776195526123047,0.0274655490437993
196,0.0188741683959961,0.0194861845814317
197,-0.030059814453125,0.0157503819495013
198,-0.00778722763061523,0.0167115996569776
199,0.0123124122619629,0.0153646232044112
200,0.0134196281433105,0.0105371854565466
201,0.00759077072143555,0.00596038848828514
202,0.000223159790039062,0.00241272289180379
203,0.000123023986816406,0.000783565190214097
204,0.00120830535888672,0.000431870232224887
205,0.000816822052001953,0.000212316262680637
206,0.000411033630371094,0.00016940810285947
207,0.000410079956054688,0.000133231408063197
208,0.000360965728759766,0.0000932335541111394
209,0.000321388244628906,0.0000887532174743842
210,0.000148773193359375,0.0000719692456997906
211,0.000226020812988281,0.00008639573494942
212,0.000195503234863281,0.000117094352453813
213,0.000216960906982422,0.0000754262337205373
214,0.000145912170410156,0.000077393182724327
215,0.000193119049072266,0.0000646655183623891
216,0.000164985656738281,0.0000777156801475647
217,0.000220775604248047,0.0000932140420397467
218,0.000241756439208984,0.0000973004886837949
219,0.000123977661132812,0.0000808347987248537
220,0.000125408172607422,0.00006653202772747
221,0.000134468078613281,0.0000908171388176692
222,0.000178337097167969,0.0000675377176329396
223,0.0000972747802734375,0.0000759145123002457
224,0.000162601470947266,0.0000699619404481212
225,0.000222682952880859,0.0000928278382380394
226,0.000162601470947266,0.00012544352247157
227,0.000123023986816406,0.000089754383296604
228,0.000202655792236328,0.0000874603063638655
229,0.000204086303710937,0.0000803481223605113
230,0.00014495849609375,0.0000657188174349188
231,0.0000863075256347656,0.0000552452427406605
232,0.000169754028320312,0.0000587932674795825
233,0.000108242034912109,0.000056520793872498
234,0.000219821929931641,0.0000759339781360421
235,0.000225543975830078,0.0000690311342072493
236,0.000153064727783203,0.000074482818872136
237,0.000142574310302734,0.0000714587853458489
238,0.000224590301513672,0.0000709590730117747
239,0.000240802764892578,0.0000755151096146742
240,0.000162124633789062,0.0000911245665404606
241,0.000178813934326172,0.0000753387620026332
242,0.000119686126708984,0.0000559811697683611
243,0.000265121459960937,0.0000444162998794722
244,0.000173091888427734,0.0000474746412080285
245,0.0000767707824707031,0.0000505818374807101
246,0.000187397003173828,0.0000632829562013473
247,0.000276088714599609,0.00006200533427109
248,0.000113964080810547,0.0000556307747245878
249,0.000379562377929687,0.0000649462012218374
250,0.000204563140869141,0.0000711926021388816
251,0.0001220703125,0.0000716875150383101
252,0.0001678466796875,0.0000737156935083555
253,0.000319004058837891,0.0000796075315655106
254,0.00000762939453125,0.0000757811118991383
255,0.0000896453857421875,0.0000688497377310945
256,0.000100135803222656,0.0000740664881536776
257,0.0000166893005371094,0.0000681510239708759
258,0.00023651123046875,0.0000986672756681638
259,-0.0000209808349609375,0.000131752100089669
260,0.0000596046447753906,0.00009185770025261
261,0.000115394592285156,0.000108129594185135
262,-0.0000414848327636719,0.000101860274679708
263,0.0000658035278320313,0.000123713284821942
264,0.0000777244567871094,0.000129077625643557
265,0.000109672546386719,0.000123496221213567
266,-0.000126361846923828,0.000146964894371763
267,0.0000596046447753906,0.000173117501751907
268,0.0000958442687988281,0.0000913438798938651
269,-0.0000391006469726562,0.0000807207991609146
270,0.000112056732177734,0.000101533848762844
271,0.000034332275390625,0.0000860502824776555
272,0.000176429748535156,0.000118915195089465
273,0.000197410583496094,0.000122034917110558
274,0.0000782012939453125,0.000118966809664038
275,0.0000162124633789062,0.000105230949541645
276,0.000100135803222656,0.0000757946124981763
277,0.000144481658935547,0.0000719091936189663
278,-0.0000181198120117187,0.0000978085886852405
279,0.000123977661132812,0.0000959023731285036
280,0.0000181198120117187,0.0000628521299332864
281,0.000104904174804687,0.0000883346466221541
282,0.0000863075256347656,0.0000806813544399466
283,0.000110149383544922,0.0000773270516495108
284,-0.000105381011962891,0.000077880807431123
285,-0.0000529289245605469,0.0000687191666515281
286,0.000163078308105469,0.0000621536704127802
287,-0.000161647796630859,0.000072344227560686
288,0.0000643730163574219,0.0000938024865997815
289,0.0000176429748535156,0.000105565328497683
290,-0.0000963211059570313,0.0000722687575991939
291,0.00000524520874023438,0.0000778574478602823
292,-0.0000576972961425781,0.0000837959058966361
293,0.0000133514404296875,0.000100898111698363
294,0.0000996589660644531,0.000109052981253989
295,-0.00000095367431640625,0.0000837986192749545
296,0.00016021728515625,0.00010217008094153
297,0.000112056732177734,0.0000956602369947321
298,-0.0000543594360351563,0.000117799046737656
299,0.000111579895019531,0.000135703532457701
300,0.000190258026123047,0.000109128014849601
301,0.00000286102294921875,0.0000846959980551533
302,-0.0000410079956054688,0.0000895692623858152
303,0.000150680541992187,0.0000798570565144767
304,-0.0000371932983398437,0.0000791204905969564
305,-0.000139236450195312,0.000113256604780712
306,0.0000605583190917969,0.000152906442959336
307,0.00000524520874023438,0.000153408229580672
308,0.0000457763671875,0.000156478165764846
309,0.000126361846923828,0.00011872574967305
310,0.000151157379150391,0.0000927812877270022
311,-0.0000853538513183594,0.000115090750439038
312,0.0000472068786621094,0.0000931554813039276
313,0.000134468078613281,0.0000768521866527778
314,0.0000863075256347656,0.000130716016471617
315,0.0000982284545898438,0.000122178298155602
316,0.0000424385070800781,0.000111643047882289
317,0.000107288360595703,0.000104567681680647
318,0.0000762939453125,0.000103689881941338
319,0.0000834465026855469,0.0000804965527384945
320,-0.00000286102294921875,0.000120736825699604
321,-0.0000457763671875,0.000109705712652355
322,0.000147819519042969,0.000104162455063234
323,0.000152587890625,0.000127121602653134
324,-0.0000104904174804687,0.000173511076355625
325,-0.000108242034912109,0.000146872037286375
326,-0.0000395774841308594,0.0000954794226167133
327,0.000189781188964844,0.000115031467069208
328,0.0000500679016113281,0.0000962833292692533
329,-0.0000205039978027344,0.00013591782952362
330,0.0000901222229003906,0.000102165629958891
331,0.0000109672546386719,0.000115713357048791
332,0.0000209808349609375,0.000135968006541753
333,0.000123500823974609,0.000122196906727249
334,0.000030517578125,0.000133087975854424
335,-0.0000243186950683594,0.000134112517023063
336,0.000150203704833984,0.00014587164920806
337,-0.0000429153442382813,0.000105042799476733
338,-0.0000867843627929688,0.000141812364924935
339,-0.000237941741943359,0.000118230617095992
340,0.0000252723693847656,0.0000675814694914827
341,0.0000276565551757812,0.0000786448899764428
342,-0.000187397003173828,0.000110253577885464
343,0.0000867843627929688,0.000126942613514977
344,0.0000767707824707031,0.000123547762342566
345,-0.000133991241455078,0.000119780127402119
346,0.0000162124633789062,0.0000962620733675183
347,-0.0000143051147460937,0.000104763196369931
348,-0.0000452995300292969,0.000111722447552547
349,-0.000102043151855469,0.000119719367711493
350,-0.0000200271606445312,0.000127557282092077
351,0.00017547607421875,0.000111539132261067
352,0.0000271797180175781,0.0000838935322278768
353,-0.0000467300415039063,0.0000930675711101052
354,-0.000123500823974609,0.0000855826396359264
355,0.000113964080810547,0.000122894544295673
356,-0.000145912170410156,0.000133210927203032
357,0.000164031982421875,0.000174603156911405
358,-0.0000529289245605469,0.000150090886692742
359,-0.0000467300415039063,0.00013406842950948
360,-0.000174045562744141,0.000142659605150066
361,-0.0000805854797363281,0.000203251244384702
362,0.0000824928283691406,0.000179782153484728
363,-0.000119209289550781,0.000179209589333288
364,0.00000333786010742187,0.000186754659442779
365,-0.0000891685485839844,0.000186754659442779
366,-0.000163555145263672,0.000186447597171873
367,0.000169277191162109,0.000191263420168914
368,-0.000101089477539062,0.000187789103961182
369,-0.000216484069824219,0.000114267933760977
370,0.0000619888305664063,0.000123856558707256
371,-0.0000510215759277344,0.000105135835270365
372,-0.00016021728515625,0.000155311359791941
373,-0.0000395774841308594,0.000158453497080826
374,-0.000118732452392578,0.000140704941875519
375,0.000100612640380859,0.000185312441432145
376,0.000234127044677734,0.000118831034413265
377,-0.000204563140869141,0.0001252476132155
378,0.0000109672546386719,0.000143577877510378
379,0.00000715255737304688,0.000141651940016769
380,-0.0000019073486328125,0.000169037259341247
381,-0.000200271606445312,0.000181152940438103
382,-0.0000743865966796875,0.000174112829508613
383,-0.000162124633789062,0.000156568230164634
384,0.000127315521240234,0.000156437474523549
385,0.0000710487365722656,0.000135408320230857
386,0.0000629425048828125,0.000151796074617946
387,0.0000720024108886719,0.00014262453680855
388,-0.0000371932983398437,0.00016833634908462
389,0.00002288818359375,0.000149702568269174
390,-0.000268936157226562,0.000148077708535227
391,-0.0000538825988769531,0.000201724098577052
392,0.000196933746337891,0.00020441136364902
393,0.000174999237060547,0.00015009694619684
394,-0.000477313995361328,0.000126720315871224
395,0.000153064727783203,0.00014315283657807
396,0.000101089477539062,0.00018091179159469
397,0.00000476837158203125,0.000171531522167373
398,0.0000233650207519531,0.000138496365513291
399,0.00000667572021484375,0.000175931588098148
400,0.000240802764892578,0.000163412588067
401,-0.000041961669921875,0.000142793423234571
402,-0.0000939369201660156,0.000153869964829244
403,0.000139236450195312,0.000153420086305162
404,0.0000290870666503906,0.000162046076871944
405,0.0001983642578125,0.000170723685256959
406,-0.000104427337646484,0.000158174870795179
407,0.000100135803222656,0.000129383768227829
408,-0.000049591064453125,0.000116652731335047
409,-0.000131130218505859,0.000140692013594895
410,0.0000133514404296875,0.000152593850973067
411,-0.000191688537597656,0.000144826678523977
412,0.0000457763671875,0.000155595113890166
413,-0.000180244445800781,0.000182244142620123
414,0.0000624656677246094,0.000112185505673121
415,0.000150203704833984,0.000150777085677884
416,0.000142574310302734,0.000231952729188685
417,-0.0000329017639160156,0.000212757024107874
418,0.000181198120117187,0.000214765253953502
419,0.000164508819580078,0.000159711265745168
420,-0.000118255615234375,0.000165719950563399
421,-0.000178813934326172,0.000127325343349635
422,0.000095367431640625,0.000127268185906275
423,0.000107765197753906,0.00012183539316486
424,-0.0000119209289550781,0.000155954183383491
425,-0.0000128746032714844,0.000187939182285263
426,-0.000030517578125,0.000149748126422047
427,-0.0000486373901367188,0.000168482162667253
428,-0.00000524520874023438,0.000181564162103818
429,0.0000734329223632813,0.000131295706622129
430,0.00019073486328125,0.000129510236236741
431,-0.000127315521240234,0.000201042146195242
432,-0.000221729278564453,0.000169636117510675
433,-0.0000638961791992188,0.000193541852805071
434,-0.000119209289550781,0.000180740783162738
435,-0.0000567436218261719,0.000133790004206566
436,0.0000848770141601563,0.000184875122427618
437,-0.000175952911376953,0.000139758034528522
438,-0.00000905990600585938,0.000135337776688569
439,0.0000667572021484375,0.0001247601391717
440,0.0000591278076171875,0.00015431853184638
441,0.0000109672546386719,0.000131344187169547
442,0.000162124633789062,0.000156507224459922
443,-0.0000519752502441406,0.000143178247572604
444,-0.00005340576171875,0.000108775324971773
445,-0.0000238418579101562,0.000127564411981247
446,-0.000131130218505859,0.000125298433916806
447,0.00000524520874023438,0.00012203864342446
448,0.0000567436218261719,0.000165560717931617
449,0.0000286102294921875,0.000144367519151049
450,0.000154495239257812,0.000134785595179582
451,-0.000171184539794922,0.000131337262472709
452,-0.00002288818359375,0.000115976364594342
453,0.0000290870666503906,0.000157601714157615
454,-0.0000853538513183594,0.000129710225071493
455,0.0000681877136230469,0.000125058669798168
456,0.0000867843627929688,0.000123492538881215
457,-0.0000281333923339844,0.00010109847406625
458,-0.000136375427246094,0.000113326848909407
459,0.000100612640380859,0.000104921512904931
460,0.0000576972961425781,0.0000884169763625131
461,-0.0000576972961425781,0.000121262980081576
462,-0.00000143051147460937,0.000135051866885854
463,0.0000653266906738281,0.0000983140627941486
464,0.000153064727783203,0.000102121109462634
465,-0.0000591278076171875,0.000110605665467677
466,0.0000271797180175781,0.000104919345799088
467,0.0000834465026855469,0.000118714258416259
468,0.000105857849121094,0.000125273026143268
469,-0.0000867843627929688,0.000106016675690713
470,-0.000034332275390625,0.0000907369868785571
471,-0.0000214576721191406,0.000118926666930806
472,0.0000858306884765625,0.000110574825449938
473,0.000117778778076172,0.0000806165104999832
474,-0.000121593475341797,0.000093426017002304
475,-0.0000476837158203125,0.000101860274679708
476,-0.0000400543212890625,0.0000888121208007427
477,-0.000120639801025391,0.000126317754286182
478,-0.000121593475341797,0.0000890320227407081
479,-0.000110149383544922,0.0000754367837927441
480,0.0000109672546386719,0.0000954675149276785
481,-0.000011444091796875,0.0000945028212492054
482,-0.0000057220458984375,0.000100305957641423
483,0.0000519752502441406,0.0000740465313815448
484,-0.0000243186950683594,0.0000913513472047211
485,-0.0000481605529785156,0.0000859881651841604
486,-0.00000762939453125,0.0000885043677962808
487,0.0000824928283691406,0.0000810398743921924
488,-0.0000505447387695313,0.0000896808878623423
489,0.0000224113464355469,0.0000977295176017379
490,-0.0000472068786621094,0.000116662476678155
491,-0.000080108642578125,0.000093060241512054
492,-0.000100612640380859,0.0000785812590742048
493,0.0000619888305664063,0.000100441873635532
494,0.0000123977661132812,0.0000921863248717848
495,0.0000967979431152344,0.0000792597456393916
496,-0.000123500823974609,0.0000740265692292797
497,-0.000163078308105469,0.0000965262579421412
498,-0.0000672340393066406,0.0000926758502318303
499,-0.00003814697265625,0.0000750757353647787
500,-0.0000977516174316406,0.0000771607393139868
501,-0.0000567436218261719,0.000107369921730077
502,-0.00006866455078125,0.000129373223646654
503,-0.0000586509704589844,0.0000929306566246298
504,0.0000920295715332031,0.0000732996585989565
505,-0.000102043151855469,0.0000789665945133171
506,-0.000164985656738281,0.000121588800377827
507,-0.0000524520874023438,0.000102689514166278
508,0.0000586509704589844,0.000101462163043017
509,-0.0000653266906738281,0.0000962479001584355
510,-0.000000476837158203125,0.0000954865665173568
511,-0.0000996589660644531,0.0000811828390511044
512,-0.00000619888305664063,0.0000893684940212096
513,-0.00000715255737304688,0.000086964953818149
514,0.0000281333923339844,0.0000790241608373564
515,-0.0000653266906738281,0.0000842694169402104
516,-0.0000905990600585938,0.000103806036561491
517,0.000115871429443359,0.000112616379221109
518,0.0000224113464355469,0.0000974849226230668
519,0.00005340576171875,0.0000881104237552727
520,-0.0000147819519042969,0.0000890141440550082
521,-0.000115871429443359,0.0000949444929241416
522,-0.000057220458984375,0.0000675090953174766
523,-0.000164031982421875,0.0000541215426045622
524,-0.0000100135803222656,0.0000672069792706071
525,0.0000739097595214844,0.0000747631397375804
526,-0.0000295639038085937,0.0000683525733459065
527,-0.00000619888305664063,0.0000777493185522148
528,0.000104904174804687,0.0000788340324408809
529,-0.000120639801025391,0.0000770619598454798
530,-0.000101566314697266,0.0000892513828771196
531,0.0000138282775878906,0.0000940687445483339
532,-0.00000333786010742187,0.0000957220161353247
533,-0.000142574310302734,0.0000827721184243551
534,-0.000106334686279297,0.0000818397602484959
535,-0.0000238418579101562,0.00006262380660775
536,-0.0000729560852050781,0.0000772373169044865
537,0.0000095367431640625,0.0000990353010997556
538,-0.0000514984130859375,0.0000860463188838312
539,-0.0000295639038085937,0.0000650616301342554
540,-0.0000391006469726562,0.0000819549777169946
541,0.00000762939453125,0.0000952934932188542
542,-0.000276565551757812,0.0000580508849522912
543,-0.0000510215759277344,0.0000467653044173854
544,-0.0000309944152832031,0.0000893786703471388
545,-0.0000782012939453125,0.0000775663253345378
546,-0.0000262260437011719,0.0000651471950725691
547,0.0000185966491699219,0.0000572988846886443
548,-0.0000772476196289063,0.0000666719982820013
549,-0.0000863075256347656,0.0000804513458257041
550,-0.0000529289245605469,0.0000749241528014696
551,-0.0000138282775878906,0.0000969610578130559
552,0.0000271797180175781,0.000108173743732065
553,-0.0000486373901367188,0.0000855839680122877
554,-0.0000967979431152344,0.0000849104933128376
555,-0.0000638961791992188,0.0000714985478523179
556,0.0000143051147460937,0.0000747372846104168
557,0.0000123977661132812,0.0000821046571732745
558,-0.0000476837158203125,0.0000771725254276713
559,-0.000107765197753906,0.0000774871385936365
560,-0.0000748634338378906,0.0000931335115348306
561,-0.0000891685485839844,0.0000622267924032586
562,-0.0000519752502441406,0.0000745804412856869
563,-0.00000286102294921875,0.000099885719091615
564,-0.0000591278076171875,0.0000883629561225777
565,-0.0000400543212890625,0.0000747768241268641
566,-0.0000734329223632813,0.0000735721259554295
567,-0.000100135803222656,0.0000789363553874026
568,0.00000238418579101562,0.0000799580703000816
569,-0.0000371932983398437,0.0000896986336531065
570,-0.0000433921813964844,0.0000650825952143272
571,0.0000519752502441406,0.0000624474651809573
572,-0.0000348091125488281,0.0000643853776154261
573,-0.0000705718994140625,0.0000645652303145913
574,-0.0000400543212890625,0.0000782143767973648
575,0.0000543594360351563,0.0000680023956281281
576,-0.000080108642578125,0.0000548704704133431
577,-0.000104427337646484,0.0000567866811142687
578,0.0000176429748535156,0.0000666447100384426
579,-0.0000414848327636719,0.000070368628690651
580,-0.0000596046447753906,0.0000641288364758144
581,-0.0000281333923339844,0.0000639424227865992
582,-0.0000452995300292969,0.0000752224786023452
583,-0.000115394592285156,0.0000911944052725366
584,-0.000100612640380859,0.0000683143080801697
585,-0.000064849853515625,0.0000634892157634477
586,-0.0000548362731933594,0.0000481322176830768
587,-0.0000538825988769531,0.0000532704153951258
588,-0.0000705718994140625,0.0000552071592502169
589,0.0000195503234863281,0.0000692071273295727
590,-0.0000472068786621094,0.0000535322717475055
591,-0.0000815391540527344,0.0000586906934370965
592,-0.0000529289245605469,0.0000766121665134957
593,0.0000162124633789062,0.0000750030139670467
594,-0.0000362396240234375,0.0000795875357734963
595,-0.0000681877136230469,0.0000898531272001052
596,-0.0000581741333007813,0.0000806080487491245
597,0.00000476837158203125,0.00006405611092666
598,-0.0000543594360351563,0.0000748148231862246
599,-0.000102043151855469,0.0000703007411727223
600,-0.0000123977661132812,0.0000663849122725995
601,-0.000049591064453125,0.0000635482796741756
602,-0.000160694122314453,0.0000544534673042515
603,-0.0000829696655273438,0.0000642298059100446
604,-0.0000596046447753906,0.0000696133259133738
605,-0.0000543594360351563,0.0000729607599294097
606,-0.0000529289245605469,0.000068927301908506
607,-0.000140666961669922,0.0000647463393107817
608,0.000000476837158203125,0.0000672222018812148
609,-0.0000777244567871094,0.0000833265259506838
610,-0.0000700950622558594,0.0000961178816901902
611,-0.0000119209289550781,0.0000580939537697676
612,-0.000108718872070312,0.0000612619774971882
613,-0.0000486373901367188,0.0000667980614007472
614,-0.0000624656677246094,0.0000834001684979348
615,-0.0000667572021484375,0.0000750863346840847
616,-0.0000200271606445312,0.0000798114873783351
617,-0.0000271797180175781,0.0000815558834649032
618,-0.0000820159912109375,0.0000649076793013558
619,-0.0000677108764648438,0.0000742535134240996
620,0.0000181198120117187,0.0000796517900984812
621,-0.0000247955322265625,0.0000740127461237478
622,-0.000119209289550781,0.0000849640325175728
623,-0.0000300407409667969,0.0000867004827561718
624,-0.0000567436218261719,0.0000741585267379649
625,-0.000169277191162109,0.0000725482311235769
626,-0.000100612640380859,0.000066758905116567
627,-0.000102996826171875,0.0000503441591464761
628,-0.0000376701354980469,0.0000598197868946855
629,0.0000100135803222656,0.0000608476724623043
630,-0.0000529289245605469,0.0000607803734092175
631,0.000011444091796875,0.0000883655292637999
632,0.00000858306884765625,0.0000721585557480886
633,0.000003814697265625,0.0000638089367264646
634,-0.0000643730163574219,0.0000506615638171899
635,-0.000072479248046875,0.0000526197960154727
636,-0.0000658035278320313,0.0000711143114232878
637,-0.000108718872070312,0.0000784958548640382
638,-0.0000276565551757812,0.0000713776011480948
639,-0.0000619888305664063,0.0000735690354038348
640,-0.0000395774841308594,0.000068897606796088
641,0.00000238418579101562,0.000092683210228419
642,0.00000715255737304688,0.000119424625458287
643,-0.0000371932983398437,0.0000992165102421935
644,-0.0000772476196289063,0.0000603853594266285
645,-0.0000290870666503906,0.00007174616810924
646,-0.0000438690185546875,0.0000669255857841844
647,-0.0000762939453125,0.0000684954627628404
648,-0.00000810623168945313,0.0000884761035430448
649,-0.0000815391540527344,0.000055767527582927
650,0.0000386238098144531,0.0000499804050129355
651,-0.0000233650207519531,0.0000737372816211312
652,-0.0000548362731933594,0.0000709638792888093
653,-0.0000376701354980469,0.0000766388725390032
654,-0.0000987052917480469,0.0000770885100477647
655,-0.0000624656677246094,0.0000638392180297072
656,0.0000677108764648438,0.0000557868907775764
657,-0.000100135803222656,0.0000541939642921629
658,-0.0000739097595214844,0.000054829016495581
659,-0.0000233650207519531,0.0000820852696778462
660,0.000011444091796875,0.0000767218985028029
661,-0.000127315521240234,0.0000777420070936978
662,-0.0000581741333007813,0.000069756892334454
663,-0.000131607055664062,0.0000581242785466905
664,-0.000140190124511719,0.0000812164412210247
665,-0.0000410079956054688,0.0000638641447926824
666,-0.0000348091125488281,0.0000639815258702069
667,-0.00000905990600585938,0.0000692284791902324
668,-0.0000338554382324219,0.0000576332225171598
669,-0.0000443458557128906,0.0000520419209392011
670,-0.000105381011962891,0.0000616910089038007
671,-0.0000734329223632813,0.0000681093071936048
672,-0.0000452995300292969,0.0000614787166984872
673,-0.0000796318054199219,0.0000632937341893675
674,-0.0000376701354980469,0.0000803594409902361
675,0.00000619888305664063,0.0000771931467964662
676,-0.00003814697265625,0.0000538920925857785
677,-0.0000591278076171875,0.0000668525015576244
678,-0.000102996826171875,0.0000742764758248167
679,-0.0000972747802734375,0.0000540258814982668
680,-0.000123500823974609,0.0000546285592908363
681,-0.0000853538513183594,0.0000457303988599392
682,-0.0000200271606445312,0.0000581213445823486
683,-0.0000729560852050781,0.0000575838865988253
684,-0.0000743865966796875,0.0000617260129880607
685,-0.0000314712524414062,0.0000661584707522946
686,-0.0000367164611816406,0.0000675006746796425
687,-0.000105381011962891,0.0000661636257569712
688,-0.0000820159912109375,0.0000556440565141347
689,-0.00006866455078125,0.0000560359746758369
690,-0.00000810623168945313,0.0000443368820627304
691,-0.0000123977661132812,0.0000386855726565777
692,-0.0000844001770019531,0.0000554311659908225
693,-0.0000333786010742187,0.0000550731435781089
694,-0.0000486373901367188,0.0000616356988222371
695,-0.0000867843627929688,0.0000780295603026114
696,-0.0000429153442382813,0.0000700869523112226
697,-0.000120639801025391,0.0000601552328952273
698,-0.000116348266601562,0.0000497649884248724
699,-0.0000696182250976563,0.0000587884331032656
700,-0.0000777244567871094,0.0000417232513427734
701,-0.0000624656677246094,0.00004121953165369
702,-0.000166416168212891,0.0000694890980326261
703,-0.0000491142272949219,0.0000601353857648463
704,-0.000034332275390625,0.0000525744052322577
705,-0.0000820159912109375,0.000052444500807988
706,-0.0000629425048828125,0.0000468248262388563
707,-0.0000143051147460937,0.0000535917025421024
708,-0.0000720024108886719,0.0000538963114751373
709,-0.000102043151855469,0.0000536277533917255
710,-0.0000500679016113281,0.0000592680007417366
711,-0.0000739097595214844,0.0000525646735363795
712,-0.0000758171081542969,0.0000679488767644489
713,-0.000103950500488281,0.000063095845214527
714,-0.0000820159912109375,0.0000661344087508614
715,-0.000121116638183594,0.0000619117551085576
716,-0.0000371932983398437,0.000063598351491683
717,-0.0000891685485839844,0.0000670070740219084
718,-0.0000886917114257813,0.000048212457768259
719,-0.0000166893005371094,0.0000557695661305337
720,-0.000120162963867187,0.0000610286366437746
721,-0.0000243186950683594,0.0000607560526530744
722,-0.0000524520874023438,0.0000626401430164703
723,-0.00006866455078125,0.0000545890042990253
724,-0.0000619888305664063,0.0000676184681835366
725,-0.000072479248046875,0.0000748087446337945
726,-0.0000386238098144531,0.0000487704420608595
727,0.00000333786010742187,0.0000518986373549492
728,-0.0000677108764648438,0.0000662992299628628
729,-0.0000538825988769531,0.0000594136037558418
730,-0.0000500679016113281,0.000072764162926341
731,-0.0000996589660644531,0.0000843476277355726
732,-0.0000300407409667969,0.0000697520028897686
733,-0.0000524520874023438,0.000075591850338273
734,-0.000124454498291016,0.000068054201891604
735,-0.0000386238098144531,0.0000711494730132847
736,-0.0000100135803222656,0.0000669867112558318
737,-0.0000905990600585938,0.0000555827294677485
738,-0.000107765197753906,0.0000539332126796213
739,-0.0000925064086914063,0.00007361538005413
740,-0.000041961669921875,0.0000645300045875355
741,-0.0000514984130859375,0.0000643482867176485
742,-0.0000553131103515625,0.0000557114382926688
743,-0.0000729560852050781,0.0000535418275742271
744,-0.0000805854797363281,0.0000599213767845983
745,-0.0000929832458496094,0.0000594241269727298
746,0.0000019073486328125,0.000054729398986755
747,-0.0000400543212890625,0.0000489507658638606
748,-0.0000510215759277344,0.0000518920652727775
749,-0.0000634193420410156,0.0000549967118797442
750,-0.0000324249267578125,0.0000524629234911697
751,-0.000072479248046875,0.0000594451678179227
752,-0.000101089477539062,0.0000590421841149014
753,-0.0000529289245605469,0.0000717429988989061
754,-0.0000858306884765625,0.0000693712032529061
755,-0.0000324249267578125,0.0000526446362887764
756,-0.0000925064086914063,0.0000578153993559757
757,-0.000100612640380859,0.0000684855034079694
758,-0.00008392333984375,0.0000696623022515399
759,-0.0000753402709960938,0.0000554936848677679
760,-0.0000596046447753906,0.0000521455825993498
761,-0.0000338554382324219,0.0000639157478770964
762,-0.000132560729980469,0.0000524098052485598
763,-0.0000824928283691406,0.0000369241032575807
764,-0.0000753402709960938,0.0000541540918663291
765,-0.0000324249267578125,0.0000546712049486657
766,-0.000121593475341797,0.00005795288224042
767,-0.0000410079956054688,0.0000726938208582831
768,-0.0000252723693847656,0.0000694547327271772
769,-0.0000858306884765625,0.0000693056194961006
770,-0.0000557899475097656,0.0000575730270231767
771,-0.000111579895019531,0.0000571100839379128
772,-0.0000500679016113281,0.0000611356563466513
773,-0.0000996589660644531,0.0000710631362352815
774,-0.0000352859497070312,0.0000615729540004412
775,-0.000026702880859375,0.0000749969506676054
776,-0.00005340576171875,0.0000669510615127787
777,-0.0000376701354980469,0.000056153522872984
778,-0.0000977516174316406,0.0000651349783917617
779,-0.0000319480895996094,0.0000657482191205718
780,-0.0000638961791992188,0.0000611263577236419
781,-0.0000715255737304688,0.0000554127043197057
782,-0.0000395774841308594,0.0000728516048704208
783,-0.0000615119934082031,0.0000662735036687884
784,-0.0000538825988769531,0.0000610575039005627
785,-0.0000681877136230469,0.0000607747617908749
786,-0.0000762939453125,0.0000659812379674068
787,-0.0000715255737304688,0.0000670409982211361
788,-0.0000662803649902344,0.0000600464658272329
789,-0.0000371932983398437,0.0000602930371020269
790,-0.0000796318054199219,0.0000692202677155703
791,-0.0000619888305664063,0.000078241988967776
792,-0.0000586509704589844,0.0000705122695771251
793,-0.000118255615234375,0.0000710967241072224
794,-0.0000519752502441406,0.000066079376988678
795,-0.000026702880859375,0.0000607663433917007
796,-0.0000600814819335938,0.0000675040430608257
797,-0.0000958442687988281,0.0000663198038128422
798,-0.0000410079956054688,0.0000776322525842082
799,-0.0000987052917480469,0.0000585743551018759
800,-0.0000810623168945313,0.0000459931624210176
801,-0.0000820159912109375,0.0000615138415864777
802,-0.0000996589660644531,0.000064923441031469
803,-0.0000705718994140625,0.0000560146680279271
804,-0.0000424385070800781,0.0000694989135702176
805,-0.0000705718994140625,0.000069756892334454
806,-0.0000576972961425781,0.0000682277161962006
807,-0.0000591278076171875,0.0000509680708084868
808,0.000011444091796875,0.0000660139671853236
809,-0.0000467300415039063,0.0000594145604889399
810,-0.000113010406494141,0.0000644736033928085
811,-0.0000939369201660156,0.0000516472097354957
812,-0.00006103515625,0.0000571886610052679
813,-0.000142574310302734,0.000058810667943875
814,-0.0000591278076171875,0.0000627108849440521
815,-0.0000596046447753906,0.0000659260783461096
816,-0.0000891685485839844,0.0000545806732796255
817,-0.000122547149658203,0.0000482324969320211
818,-0.0000133514404296875,0.0000453960494688661
819,-0.0000748634338378906,0.0000545712993625562
820,-0.0000433921813964844,0.0000643571198227043
821,-0.0000457763671875,0.0000655802795892846
822,-0.000117301940917969,0.0000735798517664911
823,-0.0000634193420410156,0.0000642846525321615
824,-0.0000386238098144531,0.0000725873968471526
825,-0.000113010406494141,0.0000514354585924898
826,-0.0000700950622558594,0.0000594327354915674
827,-0.0000820159912109375,0.0000803368021361078
828,-0.000132083892822266,0.0000635894129874025
829,-0.000114917755126953,0.0000674922529912116
830,0.000106334686279297,0.0000570672686692943
831,-0.0000553131103515625,0.0000651262507881273
832,-0.0000185966491699219,0.0000740710927990481
833,-0.0000472068786621094,0.0000621262274780053
834,-0.0000829696655273438,0.000075291968204787
835,-0.0000734329223632813,0.000078147485875937
836,-0.000169754028320312,0.0000580919967889593
837,0.00000858306884765625,0.0000756775272922162
838,-0.000106334686279297,0.0000826951671056456
839,-0.0000553131103515625,0.0000711318943909006
840,-0.0000591278076171875,0.0000606820951665575
841,-0.0000243186950683594,0.0000644189176446984
842,-0.0000739097595214844,0.0000668422974056062
843,-0.0000600814819335938,0.0000662306043053423
844,-0.000109195709228516,0.0000666805235679235
845,-0.0000457763671875,0.000058462646957375
846,-0.0000867843627929688,0.0000824100983606615
847,-0.0000844001770019531,0.0000611263577236419
848,-0.0000753402709960938,0.0000659657289858346
849,-0.000105381011962891,0.0000644012671751108
850,-0.0000452995300292969,0.0000651925512722496
851,-0.0000491142272949219,0.000070329843847346
852,-0.0000867843627929688,0.0000493681924631235
853,-0.000130176544189453,0.0000462273889447935
854,-0.000120639801025391,0.0000548310899358032
855,-0.000091552734375,0.000069678620047611
856,-0.000122547149658203,0.0000625456959830236
857,-0.0000987052917480469,0.0000622815775575855
858,-0.00002288818359375,0.0000630760221709143
859,-0.0000576972961425781,0.0000662597788943894
860,-0.0000796318054199219,0.0000828009567314278
861,-0.0000586509704589844,0.0000612749663614277
862,-0.0000891685485839844,0.0000527589663922261
863,-0.00009918212890625,0.0000527589663922261
864,-0.0000805854797363281,0.0000540027292017255
865,-0.0000982284545898438,0.0000713441455094403
866,-0.0000400543212890625,0.0000644594953831445
867,-0.000102996826171875,0.0000812178410097413
868,-0.0000948905944824219,0.0000925604672130656
869,-0.000105381011962891,0.0000866899920449282
870,-0.0000844001770019531,0.000073704897080789
871,-0.0000824928283691406,0.0000712612353762489
872,-0.0000829696655273438,0.0000522979726366772
873,-0.000124931335449219,0.0000615286250141332
874,-0.000030517578125,0.0000788037424473327
875,-0.0000491142272949219,0.0000654275491484262
876,-0.000140666961669922,0.0000598995542428673
877,-0.0000820159912109375,0.0000734979168492571
878,-0.000109672546386719,0.0000867791226659952
879,-0.000186920166015625,0.0000669493634324661
880,-0.0000529289245605469,0.0000591143469716704
881,-0.000123500823974609,0.0000586606614705108
882,-0.000072479248046875,0.000064427741066187
883,-0.00000429153442382813,0.0000862838122421451
884,-0.0000162124633789062,0.0000810398743921924
885,-0.0001068115234375,0.0000644594953831445
886,-0.000057220458984375,0.0000541876705964918
887,-0.0000238418579101562,0.0000488763902210906
888,-0.00003814697265625,0.0000517900913531352
889,-0.0000820159912109375,0.0000719107745793732
890,-0.0000472068786621094,0.0000712069727090267
891,-0.0000205039978027344,0.0000772858748665868
892,0.000003814697265625,0.0000754774631146952
893,-0.000118732452392578,0.000065543864883179
894,-0.0000596046447753906,0.0000751332565528017
895,0.00000333786010742187,0.0000821157336869402
896,-0.0000147819519042969,0.0000859987415090593
897,-0.000134468078613281,0.0000695724859613017
898,-0.0000414848327636719,0.0000788542193059196
899,-0.000125408172607422,0.0000689932452882459
900,-0.000133037567138672,0.000086951880116754
901,-0.0000987052917480469,0.000104897672278272
902,0.0000252723693847656,0.0000977434759703876
903,-0.0000181198120117187,0.000113194352149641
904,-0.0000448226928710938,0.0000667418734799103
905,-0.000164508819580078,0.0000597827158755308
906,0.00002288818359375,0.0000765884200064507
907,0.0000123977661132812,0.0000662048513442873
908,-0.0000767707824707031,0.0000801611342341236
909,-0.0000457763671875,0.0000961178816901902
910,-0.000164985656738281,0.0000675747402801256
911,-0.0000786781311035156,0.0000919566582131702
912,-0.000057220458984375,0.0000819854901397365
913,-0.0000681877136230469,0.000108898583169926
914,-0.0000905990600585938,0.000100312757814825
915,-0.00005340576171875,0.0000872416552558854
916,-0.000095367431640625,0.0000869623392351074
917,-0.0000290870666503906,0.0000816701093982812
918,-0.0000987052917480469,0.0000933651539341238
919,-0.000132083892822266,0.0000841668238209649
920,-0.000113010406494141,0.000111573781555153
921,-0.0000958442687988281,0.0000852672307863507
922,-0.0000581741333007813,0.0000894193640697399
923,-0.000110626220703125,0.0000933992421385476
924,-0.0000138282775878906,0.000115298002187653
925,-0.0000185966491699219,0.00010916759512182
926,-0.000136375427246094,0.0000723552270197559
927,-0.000184535980224609,0.0000970501269013104
928,-0.000057220458984375,0.000101204123354811
929,-0.0000376701354980469,0.0000962904135271218
930,0.0000238418579101562,0.000094951677071419
931,-0.000185012817382812,0.0000976783198511773
932,-0.0000820159912109375,0.000114881145613312
933,0.0000243186950683594,0.000137216468822453
934,-0.000181198120117187,0.00011360739110137
935,-0.000102996826171875,0.0000930822285747382
936,-0.0000662803649902344,0.000108473903332494
937,-0.0000257492065429687,0.0000671325079299165
938,0.0000567436218261719,0.0000910047183081421
939,-0.000181674957275391,0.0000866926148417534
940,-0.000113964080810547,0.0000980384618827545
941,-0.0000362396240234375,0.000100067660442922
942,-0.0000629425048828125,0.000115009722177017
943,-0.0000982284545898438,0.000131941798102935
944,-0.0000853538513183594,0.0000876472874567436
945,0.0000109672546386719,0.0000956031746620741
946,-0.000222682952880859,0.0000937539948230712
947,-0.000026702880859375,0.000135790631428476
948,-0.0000743865966796875,0.000151325006529783
949,0.0000867843627929688,0.00013074036647157
950,-0.000191688537597656,0.00013223099349844
951,0.0000524520874023438,0.000118936225953345
952,-0.0000405311584472656,0.000101933911042424
953,-0.00005340576171875,0.000128147712953498
954,-0.0000276565551757812,0.000137239665472543
955,-0.0000696182250976563,0.000117309694111468
956,-0.000130653381347656,0.00009549609088689
957,-0.000034332275390625,0.000112713250071654
958,0.0000748634338378906,0.000115738898884785
959,-0.000239372253417969,0.000115508819035643
960,-0.000116825103759766,0.000109993423759488
961,-0.00023651123046875,0.000108240984604903
962,0.0000567436218261719,0.000107725102215183
963,-0.000141620635986328,0.000123647102419761
964,-0.000108718872070312,0.000155419657007687
965,-0.000150203704833984,0.000183858910786223
966,0.0000481605529785156,0.000162169506370544
967,-0.0000643730163574219,0.000169437627922974
968,-0.0000119209289550781,0.000168420072315903
969,-0.0000987052917480469,0.00016326781744809
970,-0.0000295639038085937,0.000148745680979415
971,-0.000225067138671875,0.00013180386298802
972,-0.0000319480895996094,0.000116211388540995
973,-0.0000596046447753906,0.000138594834324531
974,0.0000810623168945313,0.000171600436943797
975,0.000123500823974609,0.000195016487634602
976,-0.000186920166015625,0.000146667544761386
977,0.000003814697265625,0.000158645664555204
978,-0.000123023986816406,0.000169182468830242
979,-0.000121116638183594,0.000154132771028781
980,-0.0003204345703125,0.000132220675983294
981,-0.0000386238098144531,0.000165211517440242
982,-0.000432014465332031,0.00018650124764892
983,0.0000405311584472656,0.000187245883141249
984,-0.0000200271606445312,0.000111492236664628
985,-0.0000643730163574219,0.000140788946762305
986,0,0.000179316133369198
987,0.0000987052917480469,0.000170734339505924
988,-0.0000920295715332031,0.000149845270854205
989,-0.000155925750732422,0.00015173614722729
990,0.000114917755126953,0.000127125179865372
991,-0.0000472068786621094,0.000202399259774477
992,0.0000967979431152344,0.000147819519042969
993,-0.000184059143066406,0.000176679588957668
994,-0.0000252723693847656,0.000254150179460714
995,0.000118255615234375,0.000184737324840779
996,-0.000214099884033203,0.000223510010914463
997,-0.00000762939453125,0.000248877936285126
998,-0.000345230102539062,0.000189409419000574
999,0.000213623046875,0.000218443468712659
1000,-0.000176429748535156,0.000211741471654936
1001,0.000162124633789062,0.000221769780387394
1002,-0.000156402587890625,0.000220985086639338
1003,0.0000905990600585938,0.000270850221792422
1004,0.000123023986816406,0.000226034896347436
1005,0.000160694122314453,0.000198304644210008
1006,-0.000221729278564453,0.000198954840128511
1007,-0.000482559204101563,0.000248782904245954
1008,0.000556468963623047,0.000226818159106557
1009,-0.000197410583496094,0.000194694427707863
1010,-0.000222682952880859,0.000253067143106415
1011,-0.0000944137573242188,0.000197422100965867
1012,0.000161170959472656,0.000239613400154335
1013,-0.000231266021728516,0.000241413380924938
1014,0.000248908996582031,0.000245589190810128
1015,-0.000181198120117187,0.000343566384232942
1016,-0.0000734329223632813,0.000300248421877173
1017,-0.000330448150634766,0.000385746820035714
1018,-0.0000653266906738281,0.00036938602185083
1019,-0.000253200531005859,0.0003121065852216
1020,-0.000384807586669922,0.00039225588034743
1021,0.000179767608642578,0.000329016257020563
1022,-0.000584125518798828,0.000274684692800822
1023,0.000610828399658203,0.000315076444197148
1024,-0.000326156616210937,0.000322251617604059
1025,-0.00000858306884765625,0.000379615089935209
1026,-0.000277519226074219,0.000341798790858213
1027,-0.0000538825988769531,0.000253913883864745
1028,0.0000662803649902344,0.000242049229907489
1029,-0.00029754638671875,0.00029500462542687
1030,-0.000273704528808594,0.000384424212429029
1031,0.0000257492065429687,0.000483624785826306
1032,-0.000164031982421875,0.000402111434878441
1033,-0.000791072845458984,0.00033217449814682
1034,0.000601291656494141,0.000494279379267486
1035,-0.000141143798828125,0.000590255838088501
1036,-0.000318527221679687,0.000477637572844433
1037,0.000348567962646484,0.000349091698669502
1038,-0.0000586509704589844,0.000325587260899203
1039,-0.000192642211914062,0.000510485747019046
1040,0.000509262084960938,0.000596692307552604
1041,-0.00133991241455078,0.000494132154000089
1042,-0.0000858306884765625,0.000469137977434608
1043,0.000320911407470703,0.000491755759767997
1044,-0.00131559371948242,0.000672296427919318
1045,0.000321388244628906,0.000822224347535067
1046,0.000632286071777344,0.000864296254957167
1047,-0.0000567436218261719,0.000773810188493819
1048,-0.00101518630981445,0.00061244605225798
1049,0.000641345977783203,0.000727917809436817
1050,0.000226974487304687,0.000794043690872662
1051,0.000400543212890625,0.000959409634022463
1052,-0.00120639801025391,0.000693498953349985
1053,0.00125646591186523,0.000678319251979281
1054,0.00009918212890625,0.000699931981036871
1055,-0.00131750106811523,0.000982327136255261
1056,0.000277042388916016,0.000749041816953441
1057,0.000356674194335937,0.00101232607298365
1058,-0.000668525695800781,0.00107636670462332
1059,-0.00206661224365234,0.00110333812602677
1060,-0.000659465789794922,0.00122165642707813
1061,-0.00031280517578125,0.00140189994760051
1062,-0.000424385070800781,0.000881434486528923
1063,0.000344753265380859,0.000930739229615191
1064,0.000490665435791016,0.00115287194835251
1065,-0.00214385986328125,0.00126927996862905
1066,0.00209474563598633,0.0016103626017195
1067,-0.000722885131835938,0.00140322797626785
1068,-0.00045013427734375,0.00159627646858179
1069,-0.000278472900390625,0.00168500839286845
1070,0.000123023986816406,0.00131548993115013
1071,0.00127840042114258,0.00138552829524559
1072,-0.0016932487487793,0.00170721234685646
1073,0.00103759765625,0.00156735322157833
1074,0.000751018524169922,0.00152248004022913
1075,-0.00291204452514648,0.00122194227267587
1076,0.00227975845336914,0.00123235387811021
1077,0.000181198120117187,0.00145026743032009
1078,0.00167989730834961,0.00156768742391091
1079,0.0000872611999511719,0.00160024617925714
1080,0.00139331817626953,0.00151458374367341
1081,0.000636100769042969,0.00180863322097518
1082,-0.0014805793762207,0.00250973452834521
1083,0.000146389007568359,0.00241788019378649
1084,0.00112104415893555,0.00229673922390464
1085,0.000937938690185547,0.00271065849055701
1086,-0.000650405883789063,0.0019466172519185
1087,0.00255203247070312,0.0023013977235233
1088,-0.0026698112487793,0.00271807820965125
1089,0.00217056274414062,0.00253309686124652
1090,-0.00348997116088867,0.00238203333012886
1091,-0.00229215621948242,0.00243151568662485
1092,0,0.00220667625205353
1093,0.00407838821411133,0.00278522016818413
1094,-0.00187492370605469,0.00262127166178352
1095,-0.00193595886230469,0.00265660732334233
1096,-0.0000939369201660156,0.00213082856698846
1097,-0.00290346145629883,0.002435534090989
1098,0.00200080871582031,0.00233160088751789
1099,-0.00305938720703125,0.00240755454221978
1100,0.00198268890380859,0.00308997071749198
