Wavelength (nm),Absorbance (AU),Std.Dev.
190,-0.0129108428955078,0.0355365109268791
191,-0.0656108856201172,0.0379534642725386
192,0.0099940299987793,0.0342162889962986
193,0.0341024398803711,0.0295051798717948
194,-0.000987529754638672,0.0292851742584999
195,-0.0273733139038086,0.0285341803392324
196,-0.0152568817138672,0.0264016385538058
197,0.00985479354858398,0.0191805831171762
198,-0.0364408493041992,0.0158428267411207
199,0.00479030609130859,0.0133841065929646
200,0.00768184661865234,0.00904783146995459
201,-0.00898551940917969,0.00430427694007085
202,-0.000387668609619141,0.00155448796558921
203,0.000399112701416016,0.000605059570055092
204,0.000595569610595703,0.000412499145169167
205,0.0000643730163574219,0.000358124705745375
206,0.000205516815185547,0.000281067091271811
207,0.000392913818359375,0.000266298931441038
208,0.000419139862060547,0.00023970447905537
209,0.0000739097595214844,0.000239404546983399
210,0.000168323516845703,0.000231976254203961
211,0.000100612640380859,0.000269186295861533
212,0.0000514984130859375,0.000279464003103521
213,0.0000514984130859375,0.00025107548022315
214,0.0000252723693847656,0.000270971080123935
215,0.0000257492065429687,0.000290474856868676
216,-0.0000309944152832031,0.00024598882392978
217,-0.000161170959472656,0.000301976119550141
218,-0.000121116638183594,0.000307645342310424
219,0.0000324249267578125,0.000280081661337044
220,-0.000139713287353516,0.000257407280420662
221,-0.0000753402709960938,0.000244304482785615
222,-0.000121593475341797,0.000232113435939466
223,-0.000146865844726562,0.000243151419044699
224,-0.000230789184570312,0.000238181950445008
225,0.0000104904174804687,0.000250299087167585
226,-0.0000314712524414062,0.000272296981377569
227,-0.000264644622802734,0.000253713218048806
228,-0.000179290771484375,0.000253067143106415
229,-0.000127792358398437,0.000263573221895213
230,-0.000188350677490234,0.000251032007713046
231,-0.000133991241455078,0.000241834958810356
232,-0.000116825103759766,0.000239187906718388
233,-0.000220775604248047,0.000252700300753444
234,-0.000247955322265625,0.000231886062018007
235,-0.000163078308105469,0.00022906058007715
236,-0.000139713287353516,0.000235277464982746
237,-0.000222206115722656,0.000246822999543312
238,-0.000300407409667969,0.000242135636483129
239,-0.000193119049072266,0.000231383480643207
240,-0.000220298767089844,0.000240624711333371
241,-0.000290393829345703,0.000242263311491465
242,-0.000369548797607422,0.000232551873690198
243,-0.000294208526611328,0.000230221009554991
244,-0.000304698944091797,0.000224354796638986
245,-0.000395774841308594,0.00023006688734753
246,-0.000238418579101562,0.000215686471517537
247,-0.000278472900390625,0.000223949047407142
248,-0.000291824340820312,0.000207463074465559
249,-0.000283718109130859,0.000215044571208729
250,-0.000329494476318359,0.000209048368614034
251,-0.000327110290527344,0.000226974487304687
252,-0.000210762023925781,0.00020091543704626
253,-0.000387668609619141,0.000204793649016655
254,-0.000436305999755859,0.000223416400970703
255,-0.000303268432617187,0.000214311647932474
256,-0.00019073486328125,0.000217035825600806
257,-0.000392436981201172,0.000218264363740089
258,-0.000465869903564453,0.000218530885232941
259,-0.000395298004150391,0.000211908922429747
260,-0.000396251678466797,0.000224225036768884
261,-0.000445842742919922,0.000194381192224079
262,-0.000571727752685547,0.000222943682242603
263,-0.000423431396484375,0.000260805080004577
264,-0.000535488128662109,0.000243920733847251
265,-0.000590324401855469,0.00023673032026727
266,-0.000463485717773438,0.000249993675774065
267,-0.000408649444580078,0.000251849479851843
268,-0.000352859497070312,0.000220836873955569
269,-0.000413894653320313,0.000182657886881016
270,-0.000233173370361328,0.000195798418454114
271,-0.000439167022705078,0.000277117474438006
272,-0.000416278839111328,0.000222906963882375
273,-0.000569343566894531,0.000182618048737275
274,-0.000291347503662109,0.000180206597608146
275,-0.000403881072998047,0.00019223576338038
276,-0.000355720520019531,0.000218285197450225
277,-0.000321865081787109,0.000257294190281568
278,-0.000575065612792969,0.000246734548367011
279,-0.000371456146240234,0.000212940761367079
280,-0.000391483306884766,0.000197357594477961
281,-0.000314235687255859,0.000175636674116581
282,-0.000402450561523438,0.000180176313329702
283,-0.000495433807373047,0.000175102499657112
284,-0.000453948974609375,0.000173888069904588
285,-0.000309944152832031,0.000191382263101363
286,-0.000439167022705078,0.000203497205782106
287,-0.000606060028076172,0.000163108978956591
288,-0.000483036041259766,0.000162863450419379
289,-0.000357627868652344,0.000200416875559668
290,-0.000432491302490234,0.000177716383639119
291,-0.000514507293701172,0.000177701029950746
292,-0.000519752502441406,0.000205188519987041
293,-0.000430107116699219,0.000193165549813977
294,-0.000439643859863281,0.000195258848450771
295,-0.000495433807373047,0.000189202831537434
296,-0.000459671020507813,0.00016528581866529
297,-0.000448703765869141,0.000183179959403889
298,-0.000197410583496094,0.000191600741497423
299,-0.000303745269775391,0.000160398834546117
300,-0.000347614288330078,0.000164153918698666
301,-0.000201225280761719,0.000189024889508898
302,-0.000316619873046875,0.00020364910606444
303,-0.000369071960449219,0.000207988475630568
304,-0.000312328338623047,0.00018981712806129
305,-0.000244140625,0.000188422491169202
306,-0.000216960906982422,0.00020331388097122
307,-0.000264644622802734,0.000149048037845205
308,-0.00037384033203125,0.000173411455271617
309,-0.000386238098144531,0.000195909868089429
310,-0.000311851501464844,0.000189946452505258
311,-0.000308513641357422,0.000196900838360776
312,-0.000614166259765625,0.000179559425199153
313,-0.000424385070800781,0.000210854781784687
314,-0.000237464904785156,0.00021730385389139
315,-0.000410556793212891,0.000189951240608572
316,-0.000346660614013672,0.000222919204007796
317,-0.000372886657714844,0.000238647351179561
318,-0.000252246856689453,0.000196030533691335
319,-0.000249385833740234,0.000152885623377623
320,-0.000341892242431641,0.000166947492151968
321,-0.000461578369140625,0.00015679751521732
322,-0.000308990478515625,0.000169877211206374
323,-0.000371932983398437,0.000156393865016436
324,-0.000500202178955078,0.000155703213744801
325,-0.000306129455566406,0.000208647725592835
326,-0.000342369079589844,0.000182563257095098
327,-0.000325679779052734,0.000187939182285263
328,-0.00048828125,0.000226336472032375
329,-0.000351428985595703,0.000209998997853718
330,-0.000379562377929687,0.000177721501240481
331,-0.000500202178955078,0.000185773211075966
332,-0.00046539306640625,0.000201683517031245
333,-0.0005340576171875,0.000174243370417884
334,-0.000310897827148437,0.00015810298031197
335,-0.000401496887207031,0.000158381733067924
336,-0.000348091125488281,0.000194310995698651
337,-0.000547409057617188,0.000187764886545716
338,-0.000444412231445313,0.000164444537664875
339,-0.000638008117675781,0.000212071952418681
340,-0.000484943389892578,0.000206624055450049
341,-0.000545978546142578,0.000173296032997129
342,-0.000485897064208984,0.000187430366671682
343,-0.000311374664306641,0.000201868322447178
344,-0.000348091125488281,0.000189515027828964
345,-0.000418663024902344,0.000183244493476493
346,-0.000400066375732422,0.000162287237865275
347,-0.000394821166992187,0.000163161942301492
348,-0.000255584716796875,0.000169298009532517
349,-0.000321388244628906,0.000169957499770702
350,-0.000269889831542969,0.000108660297341836
351,-0.000301361083984375,0.000125338350011973
352,-0.000429153442382813,0.000206461128745083
353,-0.000321388244628906,0.000168163369264016
354,-0.000291347503662109,0.000192415462787616
355,-0.000166893005371094,0.000203358609578289
356,-0.000412464141845703,0.000208774098220459
357,-0.000215053558349609,0.000206298073366579
358,-0.000216007232666016,0.000227826387036667
359,-0.000224113464355469,0.000260763229546175
360,-0.000532150268554688,0.000243644657615797
361,-0.000689983367919922,0.000192278338944015
362,-0.000368595123291016,0.000169504711213903
363,-0.000552177429199219,0.000211388963021979
364,-0.000643253326416016,0.000271567866982387
365,-0.00040435791015625,0.000271567866982387
366,-0.000384330749511719,0.000271071754237948
367,-0.000481605529785156,0.00025318930577685
368,-0.000622749328613281,0.000229730621717
369,-0.000367641448974609,0.00018232397360139
370,-0.000309944152832031,0.000197196235940251
371,-0.000528335571289063,0.000229971991573095
372,-0.000483036041259766,0.00021833519024364
373,-0.000311851501464844,0.000208180790489621
374,-0.000515460968017578,0.000223224989014974
375,-0.0003509521484375,0.000198520085677053
376,-0.000423908233642578,0.000192008534266234
377,-0.000355720520019531,0.000217199194706062
378,-0.000427722930908203,0.000239973718408617
379,-0.000387191772460937,0.000190877860824726
380,-0.000559329986572266,0.00025962371104696
381,-0.000511646270751953,0.000260393258373898
382,-0.000250339508056641,0.000214421958213297
383,-0.000365257263183594,0.000176133086833436
384,-0.000304698944091797,0.000189044134559804
385,-0.000379085540771484,0.000208368563063712
386,-0.000277996063232422,0.000228476164846487
387,-0.000501632690429688,0.000179594877721151
388,-0.000319004058837891,0.000213925114009109
389,-0.000191211700439453,0.000226958458598951
390,-0.0000858306884765625,0.000179680947580803
391,-0.000369548797607422,0.00020066177871456
392,-0.000653266906738281,0.000193757896096605
393,-0.000248432159423828,0.000214959967943511
394,-0.000200271606445312,0.000211591082490435
395,-0.000213146209716797,0.000180926872813884
396,-0.000412464141845703,0.00017488421264145
397,-0.000387668609619141,0.000206024556137715
398,-0.000216960906982422,0.000178986148556947
399,-0.000442028045654297,0.000172100564955311
400,-0.000193119049072266,0.000179006472879792
401,-0.000319957733154297,0.000161939402959627
402,-0.000226497650146484,0.000175071332461222
403,-0.000321388244628906,0.000152695141293529
404,-0.000569820404052734,0.000239404546983399
405,-0.000494003295898438,0.000229155853276684
406,-0.000258922576904297,0.000234208122090864
407,-0.000391483306884766,0.000232086006079212
408,-0.000242233276367187,0.000184278900514404
409,-0.000251293182373047,0.000198593374128346
410,-0.000381946563720703,0.000239852408505616
411,-0.000638484954833984,0.000195617177370481
412,-0.0000529289245605469,0.000252318507296046
413,-0.000457286834716797,0.000226633633399644
414,-0.000452518463134766,0.000140843845944256
415,-0.000598430633544922,0.00015587835145576
416,-0.00018310546875,0.000253081518245914
417,-0.000535964965820313,0.00021143198334581
418,-0.000317096710205078,0.000271500877695252
419,-0.000225067138671875,0.000262182397502193
420,-0.000582695007324219,0.000215665386765395
421,-0.000364780426025391,0.000203336246504644
422,-0.000333786010742187,0.000173154273232416
423,-0.000354766845703125,0.000205303732209048
424,-0.000322818756103516,0.000270157603683246
425,-0.000177383422851562,0.000205618021356632
426,-0.000540256500244141,0.000162869034723944
427,-0.000455379486083984,0.000149547566735792
428,-0.000232696533203125,0.000157803564391121
429,-0.000490188598632813,0.000184776706065878
430,-0.000383853912353516,0.000210617412823045
431,-0.000222682952880859,0.000222653850638696
432,-0.00045013427734375,0.000207620834419934
433,-0.000500202178955078,0.000163571131734044
434,-0.000401020050048828,0.000157546881613331
435,-0.000337600708007812,0.000205343598301959
436,-0.000429630279541016,0.000217659318696333
437,-0.000432968139648438,0.000209860361761463
438,-0.000480175018310547,0.000202034952955099
439,-0.000277042388916016,0.00019563577392698
440,-0.000547409057617188,0.000199146744802696
441,-0.000421047210693359,0.000197371419071602
442,-0.000277996063232422,0.000163573911830273
443,-0.000239849090576172,0.000220181074534811
444,-0.000391006469726562,0.000212024772418773
445,-0.000479221343994141,0.000221634403563066
446,-0.0001983642578125,0.000247573558648498
447,-0.000462532043457031,0.000200987852055656
448,-0.000473976135253906,0.000196109390288099
449,-0.000296592712402344,0.000233835030460768
450,-0.000495433807373047,0.000217471203822925
451,-0.000514984130859375,0.000164726362272088
452,-0.000284671783447266,0.000210768496728987
453,-0.000281810760498047,0.000203885666095568
454,-0.000517845153808594,0.00017488421264145
455,-0.000508308410644531,0.000223863746634179
456,-0.000411033630371094,0.000207309581634757
457,-0.000428199768066406,0.000186154686019321
458,-0.000431060791015625,0.00019563577392698
459,-0.000500202178955078,0.00016216109370734
460,-0.000317573547363281,0.000186662106558672
461,-0.000484466552734375,0.000179539163472029
462,-0.000272274017333984,0.000204121951973866
463,-0.00022125244140625,0.0002007070983571
464,-0.000527381896972656,0.000199607474547594
465,-0.000250816345214844,0.000189994328108414
466,-0.000369071960449219,0.000183804489042181
467,-0.000296115875244141,0.000227594730265829
468,-0.000380992889404297,0.000198822226418121
469,-0.000506401062011719,0.00020960017193323
470,-0.000393390655517578,0.000192150583952206
471,-0.000275611877441406,0.000207769719942417
472,-0.000571250915527344,0.000205794874286893
473,-0.000454902648925781,0.000200525758332402
474,-0.000347614288330078,0.000172954562649592
475,-0.000328540802001953,0.000170096576840336
476,-0.00038909912109375,0.000177823822338969
477,-0.000341415405273437,0.000173982190652971
478,-0.000417232513427734,0.0001570467361096
479,-0.000481605529785156,0.000190601302114172
480,-0.000421524047851563,0.000210063952025613
481,-0.000313282012939453,0.000167610804672801
482,-0.000441551208496094,0.000184648686375137
483,-0.000388622283935547,0.000206632858639259
484,-0.000421047210693359,0.000199516325415234
485,-0.000455856323242188,0.000208861207206692
486,-0.000363826751708984,0.000183957818163749
487,-0.000399112701416016,0.000151562223798276
488,-0.000420570373535156,0.000176592056260722
489,-0.000361442565917969,0.000201561723370775
490,-0.000308990478515625,0.000190042191650704
491,-0.000341892242431641,0.000165159211355509
492,-0.000452995300292969,0.000216792638733002
493,-0.000417709350585938,0.000209417846707225
494,-0.00031280517578125,0.000199165011794553
495,-0.00048065185546875,0.000205573784351461
496,-0.000462055206298828,0.000218468448430522
497,-0.000416278839111328,0.000185130760117305
498,-0.000332355499267578,0.000195858794878807
499,-0.000425815582275391,0.000222751864077327
500,-0.000520229339599609,0.000183477619592753
501,-0.000341415405273437,0.00016534358542318
502,-0.000493526458740234,0.000210280321025997
503,-0.000448226928710938,0.000180211644493101
504,-0.000432014465332031,0.000172488550863812
505,-0.000297069549560547,0.000205259427469067
506,-0.000503063201904297,0.000198047642017418
507,-0.000425815582275391,0.000192278338944015
508,-0.000333786010742187,0.00018873597825968
509,-0.000370979309082031,0.00020466037475645
510,-0.000376701354980469,0.000196997814517448
511,-0.000405788421630859,0.000184002309138225
512,-0.000333786010742187,0.000159850723008407
513,-0.000473499298095703,0.00020569762399182
514,-0.000422000885009766,0.000205090982170339
515,-0.000377655029296875,0.000172166610658053
516,-0.000436305999755859,0.000174551059891921
517,-0.000426292419433594,0.00018470285938096
518,-0.000463485717773438,0.000182782325116316
519,-0.000480175018310547,0.000203264668135268
520,-0.000494956970214844,0.000185160234062372
521,-0.000547409057617188,0.000173898530281167
522,-0.000653266906738281,0.00017992880093056
523,-0.000588417053222656,0.000200303393066645
524,-0.000370979309082031,0.000202444190460709
525,-0.000319957733154297,0.000189371001187897
526,-0.000430583953857422,0.000182443654577203
527,-0.000390052795410156,0.000186720566349193
528,-0.000395298004150391,0.00016024850359538
529,-0.000380992889404297,0.000181584197875464
530,-0.000394344329833984,0.000205104285513017
531,-0.000485897064208984,0.000201069287767203
532,-0.000449657440185547,0.000205299302165305
533,-0.000344276428222656,0.00020225541450439
534,-0.000397682189941406,0.000198254187930089
535,-0.000516414642333984,0.000194657052955355
536,-0.000470161437988281,0.000202686644056986
537,-0.000456333160400391,0.000207752209536592
538,-0.000474929809570313,0.000214001626659879
539,-0.000436305999755859,0.000201159733225318
540,-0.000460147857666016,0.000219602019723881
541,-0.000413417816162109,0.000230141985418672
542,-0.000339984893798828,0.000197652309422264
543,-0.000281810760498047,0.000188543124811001
544,-0.000357151031494141,0.00019782249120837
545,-0.000553131103515625,0.000195589279220444
546,-0.000412940979003906,0.000224662675960184
547,-0.000455379486083984,0.000216738093898077
548,-0.000349044799804687,0.000200611915282847
549,-0.000419139862060547,0.000198995978138236
550,-0.000458240509033203,0.000209287517156146
551,-0.000462055206298828,0.000174837401395091
552,-0.000375270843505859,0.000204873571957978
553,-0.000485897064208984,0.000245700265211253
554,-0.000504016876220703,0.00025622444370664
555,-0.000479698181152344,0.000211947546128679
556,-0.00048828125,0.000198167005914586
557,-0.000520229339599609,0.000221794385477843
558,-0.000489234924316406,0.000191182564777363
559,-0.000357627868652344,0.000201642927318219
560,-0.000407218933105469,0.000188417664217038
561,-0.000503063201904297,0.000175921248608374
562,-0.000398635864257812,0.000186476862981942
563,-0.000322341918945312,0.000206808843731533
564,-0.000499725341796875,0.000210539670311818
565,-0.00045013427734375,0.00021335892016304
566,-0.000440120697021484,0.000206456723536169
567,-0.000348567962646484,0.000186988273201713
568,-0.000456333160400391,0.00021043164695435
569,-0.000433921813964844,0.000212615908757839
570,-0.000483989715576172,0.000230611780253027
571,-0.000371932983398437,0.000224597894333704
572,-0.000421524047851563,0.000206187827816469
573,-0.000461578369140625,0.000224889264697515
574,-0.000481128692626953,0.000218580821833791
575,-0.000506877899169922,0.000191529525925663
576,-0.000548362731933594,0.000202444190460709
577,-0.000397205352783203,0.000201597818052242
578,-0.000442028045654297,0.000209261441505508
579,-0.000362873077392578,0.000194320356700497
580,-0.000391960144042969,0.000213742222921578
581,-0.000419139862060547,0.000230019444354034
582,-0.000405788421630859,0.00020178270195676
583,-0.000401020050048828,0.00019942513462231
584,-0.000394821166992187,0.000200208018062555
585,-0.000458717346191406,0.000206857213384046
586,-0.000475883483886719,0.000214926117312548
587,-0.000399112701416016,0.00020889168677011
588,-0.000459194183349609,0.000206668067646311
589,-0.000415802001953125,0.000212110546431108
590,-0.000449657440185547,0.000216532378331274
591,-0.000437736511230469,0.000218560016303343
592,-0.000368595123291016,0.000231320581194386
593,-0.000392436981201172,0.00021920406949705
594,-0.000454425811767578,0.000202951215945834
595,-0.000379085540771484,0.000212333396705011
596,-0.000421047210693359,0.000207094500546983
597,-0.00048828125,0.000206174594388987
598,-0.000380992889404297,0.000192845114938116
599,-0.000465869903564453,0.000212106258554291
600,-0.000493526458740234,0.000212007613452013
601,-0.000513076782226563,0.000214332865857177
602,-0.000489711761474609,0.000219353385436822
603,-0.000451564788818359,0.000221001548579664
604,-0.000399589538574219,0.000207182315714626
605,-0.000429153442382813,0.000221486625384532
606,-0.000465869903564453,0.000214163063599699
607,-0.000432968139648438,0.00020809339667758
608,-0.000364780426025391,0.000193165549813977
609,-0.000397205352783203,0.000182453624448222
610,-0.000444412231445313,0.000189884196175158
611,-0.000479221343994141,0.000198341331624264
612,-0.000430107116699219,0.000200226188232585
613,-0.000485420227050781,0.00023042239843405
614,-0.000398635864257812,0.000205746254885281
615,-0.000368595123291016,0.000196933169052349
616,-0.000498294830322266,0.000201028574035082
617,-0.000395774841308594,0.00021239335490532
618,-0.000374317169189453,0.000224703154992594
619,-0.000499725341796875,0.000209204933112766
620,-0.000419139862060547,0.000201827769900492
621,-0.000470161437988281,0.000200879219752221
622,-0.000477313995361328,0.000214735608085588
623,-0.000406742095947266,0.000230359236562468
624,-0.000447273254394531,0.000215429096553991
625,-0.000518798828125,0.000229635586982494
626,-0.000432014465332031,0.000199384085158507
627,-0.000347137451171875,0.000179772035458241
628,-0.000250339508056641,0.000186730307868248
629,-0.000490665435791016,0.000195923794836228
630,-0.000523567199707031,0.000235064759399431
631,-0.000399112701416016,0.000211091883829443
632,-0.000462055206298828,0.000205476429416376
633,-0.000493526458740234,0.000206350970309337
634,-0.000435352325439453,0.000219945500493422
635,-0.000420093536376953,0.000224549295849021
636,-0.000408649444580078,0.000211977581917979
637,-0.000404834747314453,0.000194100253802621
638,-0.000459671020507813,0.000201976422765933
639,-0.000388622283935547,0.000225289283649134
640,-0.000435352325439453,0.000206311298873748
641,-0.000415325164794922,0.000179989447682779
642,-0.000448703765869141,0.000192651654002632
643,-0.000484943389892578,0.000224597894333704
644,-0.000382900238037109,0.000220799805239579
645,-0.000444412231445313,0.000209548095199162
646,-0.000449180603027344,0.000189668535698271
647,-0.000544071197509766,0.00021561899305309
648,-0.000443458557128906,0.000214167310296909
649,-0.0004425048828125,0.000215057258827869
650,-0.000398635864257812,0.000220102577869131
651,-0.000552177429199219,0.000232798132057036
652,-0.000426292419433594,0.000219121072231761
653,-0.000367641448974609,0.000207883501628779
654,-0.000393867492675781,0.000230394767245863
655,-0.000360012054443359,0.00022797404509749
656,-0.000444412231445313,0.000251921694757944
657,-0.000523090362548828,0.000207800359602131
658,-0.000391960144042969,0.000213465462190555
659,-0.000430583953857422,0.000240549104999784
660,-0.000446319580078125,0.000225156022963684
661,-0.000390529632568359,0.000214527972299916
662,-0.000417709350585938,0.0002082725145245
663,-0.000421524047851563,0.000233414589550451
664,-0.000422954559326172,0.000242593452430857
665,-0.00049591064453125,0.000210371129645374
666,-0.00045013427734375,0.000217684388396993
667,-0.000365257263183594,0.000208756672061402
668,-0.000448226928710938,0.000226685797195524
669,-0.000365257263183594,0.000225503143582363
670,-0.000405788421630859,0.000194614997779287
671,-0.000416278839111328,0.000220939809979
672,-0.000419139862060547,0.000245604003632652
673,-0.000438690185546875,0.00022653729945031
674,-0.000483512878417969,0.000208198264849873
675,-0.000349044799804687,0.000213324815476096
676,-0.000461578369140625,0.00022957617029592
677,-0.000473499298095703,0.000221974739471072
678,-0.000451087951660156,0.000213149943308378
679,-0.000430107116699219,0.00021790571215588
680,-0.000530719757080078,0.000218397665142692
681,-0.000498771667480469,0.000205635713494107
682,-0.000489234924316406,0.000207922873090178
683,-0.000489234924316406,0.000217742873140369
684,-0.0004730224609375,0.000218767982567594
685,-0.000419139862060547,0.000236380448637618
686,-0.000418663024902344,0.000221974739471072
687,-0.000383377075195312,0.000219419715461149
688,-0.000369548797607422,0.000232950447254311
689,-0.000441551208496094,0.000234320710023744
690,-0.000514984130859375,0.000209869029200259
691,-0.000411033630371094,0.00019806601037602
692,-0.000336170196533203,0.000223550698663679
693,-0.000470161437988281,0.000227486809575588
694,-0.000431060791015625,0.000216931037104272
695,-0.000417709350585938,0.000207721562774574
696,-0.000457763671875,0.000221814887634964
697,-0.000446796417236328,0.000228288995356746
698,-0.0005035400390625,0.000210068281589636
699,-0.000421524047851563,0.000193917425569502
700,-0.000410556793212891,0.000206997860834179
701,-0.000439643859863281,0.000225805429453753
702,-0.000431060791015625,0.000214549168831136
703,-0.000360965728759766,0.000206086349823059
704,-0.000449657440185547,0.000195937720593149
705,-0.000443458557128906,0.000200203475262376
706,-0.00042724609375,0.000211376055217465
707,-0.000465869903564453,0.000210379776041039
708,-0.000406265258789063,0.000207598930484268
709,-0.000402927398681641,0.000230031306019744
710,-0.000365734100341797,0.000219369969823149
711,-0.000439643859863281,0.000223412330083409
712,-0.000469207763671875,0.000222931443461168
713,-0.000379562377929687,0.000221630299944192
714,-0.000421524047851563,0.000239229729765686
715,-0.000471591949462891,0.000231638834019246
716,-0.00045013427734375,0.000220412270506664
717,-0.000452995300292969,0.000202619324937258
718,-0.000395298004150391,0.000230023398310567
719,-0.000412464141845703,0.000228081735244206
720,-0.000513076782226563,0.000207050578996459
721,-0.000515937805175781,0.000215412208763698
722,-0.000417709350585938,0.000232856726615957
723,-0.000454902648925781,0.000223969352326572
724,-0.000473976135253906,0.000221921468319323
725,-0.000421524047851563,0.000216574376969746
726,-0.000407218933105469,0.000222191789680983
727,-0.000445842742919922,0.000220222377331051
728,-0.000531196594238281,0.000210427324866608
729,-0.000450611114501953,0.000231049131171844
730,-0.000412940979003906,0.000240412953681098
731,-0.000365257263183594,0.00022087393645041
732,-0.000470638275146484,0.00022993244010809
733,-0.000491142272949219,0.000213614531756038
734,-0.000425338745117188,0.00021824769534007
735,-0.000425815582275391,0.000221576945982894
736,-0.000395774841308594,0.000214371052829393
737,-0.000403404235839844,0.000208560527442256
738,-0.000424861907958984,0.000217609170630535
739,-0.000455379486083984,0.000221691846251515
740,-0.000446319580078125,0.000221568736540829
741,-0.000405788421630859,0.000215175640530838
742,-0.000384330749511719,0.00022960389999642
743,-0.000495433807373047,0.000234995104847417
744,-0.000399589538574219,0.000221322311681598
745,-0.000453948974609375,0.000224533094016621
746,-0.000430107116699219,0.000224933746377968
747,-0.000370502471923828,0.00023817049470826
748,-0.000416278839111328,0.00023284500888378
749,-0.000406742095947266,0.000225599919129447
750,-0.000411033630371094,0.000238841635157277
751,-0.000392436981201172,0.000233402899825163
752,-0.000433921813964844,0.000242975554493625
753,-0.000455856323242188,0.000255114564184154
754,-0.000403881072998047,0.000234890584290543
755,-0.000424861907958984,0.000240745632079134
756,-0.000449180603027344,0.000216788443463701
757,-0.000415802001953125,0.000237933619328076
758,-0.000473976135253906,0.000235524735114031
759,-0.000474929809570313,0.000220040587036991
760,-0.000413417816162109,0.00021571177049968
761,-0.00035858154296875,0.000233663831041161
762,-0.000425338745117188,0.000238643540108709
763,-0.000500679016113281,0.000218930059113483
764,-0.000372886657714844,0.000235914431055611
765,-0.000443458557128906,0.000236999100825494
766,-0.000446319580078125,0.000240809846528421
767,-0.000470161437988281,0.000227486809575588
768,-0.000391960144042969,0.000222902883691205
769,-0.000477313995361328,0.000240284295487552
770,-0.0005035400390625,0.00020923970931433
771,-0.000432491302490234,0.000208281248040156
772,-0.000470638275146484,0.000202268904344077
773,-0.000422000885009766,0.000224699107417503
774,-0.000426292419433594,0.00022103035402504
775,-0.000439643859863281,0.000226280208415169
776,-0.000407695770263672,0.000232058572976684
777,-0.000403404235839844,0.000235744741715561
778,-0.000349521636962891,0.000228085722791698
779,-0.000469207763671875,0.000221466092838634
780,-0.00048828125,0.000209830022906226
781,-0.000433444976806641,0.00023176444310271
782,-0.000430107116699219,0.000234890584290543
783,-0.000389575958251953,0.000224014016670884
784,-0.00045013427734375,0.000230252611615477
785,-0.000413894653320313,0.000225777233229945
786,-0.000456333160400391,0.000233114367705923
787,-0.000451564788818359,0.000223851558156027
788,-0.000388145446777344,0.000244062381365741
789,-0.000425338745117188,0.000238624483841452
790,-0.000474929809570313,0.000228555764948141
791,-0.000444412231445313,0.000228782473295119
792,-0.000394344329833984,0.000233461342598401
793,-0.000466823577880859,0.000235486116271212
794,-0.000418186187744141,0.000219552315391948
795,-0.000422000885009766,0.000236734162138141
796,-0.000416755676269531,0.000225660382770805
797,-0.000394344329833984,0.00022591817915806
798,-0.000421047210693359,0.000238094109044106
799,-0.000439643859863281,0.000224464223182263
800,-0.000430583953857422,0.000238674026971612
801,-0.000405788421630859,0.000237826566016621
802,-0.000417709350585938,0.000249089800182483
803,-0.000455856323242188,0.000237593175721951
804,-0.000455379486083984,0.000229076461695423
805,-0.000501155853271484,0.000251010268634615
806,-0.000422477722167969,0.000249512988290711
807,-0.000447750091552734,0.000247859936487036
808,-0.000448703765869141,0.000238349904660237
809,-0.000494480133056641,0.000239237333170579
810,-0.000449180603027344,0.000241861283029408
811,-0.000413894653320313,0.000233714425740215
812,-0.0005035400390625,0.000229016899948107
813,-0.000455856323242188,0.000241232479152868
814,-0.000475883483886719,0.000239050980131429
815,-0.000451564788818359,0.000237604659293232
816,-0.000350475311279297,0.000248131322753134
817,-0.000460624694824219,0.000242570957094829
818,-0.000388622283935547,0.000258246834427075
819,-0.000425338745117188,0.000241966551266762
820,-0.000444889068603516,0.00024183871958851
821,-0.000392436981201172,0.000247808559706295
822,-0.000439643859863281,0.000248739031059078
823,-0.000434398651123047,0.000244609561219993
824,-0.000498294830322266,0.000220354494254719
825,-0.000354766845703125,0.000232309269323895
826,-0.000490188598632813,0.000246358276578464
827,-0.000505924224853516,0.000244602124809721
828,-0.000441551208496094,0.000244587251310889
829,-0.000417709350585938,0.000230785243733706
830,-0.000406742095947266,0.000232230955786973
831,-0.000502109527587891,0.000230078746567325
832,-0.000415802001953125,0.000239894115703958
833,-0.000436305999755859,0.000244010205004353
834,-0.000396251678466797,0.000224302090745215
835,-0.000414848327636719,0.000218039232825367
836,-0.000460624694824219,0.00024269465564
837,-0.000421047210693359,0.000266196452276382
838,-0.000414848327636719,0.000238532992566887
839,-0.000415325164794922,0.00023974241838532
840,-0.000451087951660156,0.000253842235711885
841,-0.000478267669677734,0.000257830926659287
842,-0.000505924224853516,0.000256975857438649
843,-0.000466823577880859,0.000230517108791918
844,-0.000439643859863281,0.000231595640162669
845,-0.000504970550537109,0.000225261022818674
846,-0.000428199768066406,0.000232583159046501
847,-0.000433921813964844,0.000240930674356661
848,-0.000457286834716797,0.000229001014199123
849,-0.0004119873046875,0.000237566378563586
850,-0.000481605529785156,0.000244017659453314
851,-0.000497817993164063,0.000239890324440108
852,-0.000489234924316406,0.000232786411375395
853,-0.000487804412841797,0.000247007171097794
854,-0.000529289245605469,0.000240877819639554
855,-0.000526905059814453,0.000259371363301232
856,-0.000452041625976563,0.00024840241252267
857,-0.000435352325439453,0.000254035639348104
858,-0.000500202178955078,0.000261202324928776
859,-0.000414848327636719,0.000248182632718065
860,-0.000458240509033203,0.000243237434083927
861,-0.000456333160400391,0.000263662923113424
862,-0.000410079956054688,0.000265998213939731
863,-0.000393390655517578,0.000228368660698142
864,-0.000397682189941406,0.000229243152259437
865,-0.000459671020507813,0.000254907707756092
866,-0.000466346740722656,0.000225450706149442
867,-0.000482082366943359,0.000208586690714948
868,-0.000402927398681641,0.000222461782565618
869,-0.000484943389892578,0.000213299233382328
870,-0.000422000885009766,0.000209161454729789
871,-0.000465869903564453,0.000249542147223648
872,-0.000432491302490234,0.000248629314221196
873,-0.000432491302490234,0.000227070635778629
874,-0.000443458557128906,0.00022364018565521
875,-0.000434398651123047,0.000237271410076613
876,-0.000400543212890625,0.000245463245727447
877,-0.000427722930908203,0.000247580905807957
878,-0.00046539306640625,0.000266892534633054
879,-0.000514030456542969,0.000266776647034809
880,-0.000424861907958984,0.000245381717404078
881,-0.000392913818359375,0.000230276310314736
882,-0.000364303588867187,0.000245700265211253
883,-0.000468730926513672,0.000240462128327759
884,-0.000403404235839844,0.000225224682254595
885,-0.000479698181152344,0.000259868814204482
886,-0.000464439392089844,0.000246918785895383
887,-0.000486850738525391,0.000238521553690026
888,-0.000401020050048828,0.000233519770745222
889,-0.000464916229248047,0.00024305788991177
890,-0.000473976135253906,0.000261960291338537
891,-0.000493049621582031,0.000276539242249405
892,-0.000463962554931641,0.000241582853308692
893,-0.000428676605224609,0.000232289693414892
894,-0.000439643859863281,0.00023394779794495
895,-0.000586032867431641,0.0002539783499209
896,-0.000471115112304688,0.000252022760863011
897,-0.000463485717773438,0.00025497192253801
898,-0.000574111938476563,0.000271735267949415
899,-0.000507354736328125,0.000244200222370594
900,-0.000424385070800781,0.000277740351093558
901,-0.000476837158203125,0.000278538212890149
902,-0.000394821166992187,0.000255043253333233
903,-0.00054168701171875,0.000269301146524431
904,-0.000461101531982422,0.000256614602833056
905,-0.000500202178955078,0.000252390588002358
906,-0.000477313995361328,0.000252253617050066
907,-0.000601291656494141,0.000260302430419086
908,-0.000393390655517578,0.000272123241599008
909,-0.000512599945068359,0.000253383207785272
910,-0.000490665435791016,0.000254679257403578
911,-0.000382900238037109,0.000243147678570139
912,-0.000480175018310547,0.000258218658459022
913,-0.000429630279541016,0.00028125470872752
914,-0.000447750091552734,0.000229592016249162
915,-0.000465869903564453,0.000238887326071192
916,-0.000528812408447266,0.000239731037216776
917,-0.000431060791015625,0.000260532931858368
918,-0.000495433807373047,0.000252066062503179
919,-0.000432968139648438,0.000235215606833923
920,-0.000443458557128906,0.00024295683800722
921,-0.000387668609619141,0.0002425822050236
922,-0.000429630279541016,0.000255684334998134
923,-0.000448226928710938,0.000268353853123782
924,-0.000482082366943359,0.000242499708097214
925,-0.000420570373535156,0.000244084739249174
926,-0.000402450561523438,0.000220585508465202
927,-0.000388622283935547,0.00028169414928302
928,-0.00038909912109375,0.000282448645351176
929,-0.000472068786621094,0.000256997091895512
930,-0.000542640686035156,0.000232583159046501
931,-0.000409126281738281,0.000250190054468238
932,-0.000411033630371094,0.00025475781031897
933,-0.000331878662109375,0.000274956064836135
934,-0.000537872314453125,0.000288224298177547
935,-0.000517845153808594,0.000274922985026966
936,-0.000507354736328125,0.000252858611747033
937,-0.000474452972412109,0.000251053744909061
938,-0.000386714935302734,0.000282210262118251
939,-0.000463008880615234,0.000277150292319771
940,-0.000425815582275391,0.000283849108930537
941,-0.000382900238037109,0.000234820878073244
942,-0.000453948974609375,0.000279750245930467
943,-0.000469207763671875,0.000293595418655045
944,-0.00055694580078125,0.000272550709523945
945,-0.000515937805175781,0.000260693463852242
946,-0.000539302825927734,0.000262985959894479
947,-0.000508308410644531,0.000252829835303131
948,-0.000446319580078125,0.000247191205433997
949,-0.000445842742919922,0.000258007240619646
950,-0.000246047973632812,0.000234037195589874
951,-0.000376224517822266,0.000228710905463137
952,-0.000290393829345703,0.000300787125644639
953,-0.000524997711181641,0.00026251520440298
954,-0.000394344329833984,0.000260463104478631
955,-0.000524997711181641,0.00026565607630689
956,-0.000492095947265625,0.000283117620533678
957,-0.000454425811767578,0.000271313219697629
958,-0.00048065185546875,0.000291150380703931
959,-0.000493526458740234,0.000295663648011734
960,-0.000448226928710938,0.000283124045314874
961,-0.000502109527587891,0.000247588252749389
962,-0.000497341156005859,0.00029593422212228
963,-0.000488758087158203,0.000299751231152686
964,-0.000385761260986328,0.00028255166770279
965,-0.000492572784423828,0.000249199314278863
966,-0.000401496887207031,0.000290418492289341
967,-0.000422000885009766,0.000259602691437076
968,-0.000563621520996094,0.000311960848614871
969,-0.000440120697021484,0.000349633184746379
970,-0.000467777252197266,0.000332021134587082
971,-0.000346183776855469,0.000269233593244421
972,-0.000252723693847656,0.000250952288552156
973,-0.000334739685058594,0.000264661376010448
974,-0.000455379486083984,0.00025177001953125
975,-0.000609397888183594,0.000245729876572036
976,-0.000354290008544922,0.000297369048261547
977,-0.000468730926513672,0.000272443905421083
978,-0.00040435791015625,0.000307130513770744
979,-0.0004730224609375,0.000318909604011946
980,-0.000529289245605469,0.000298102177651941
981,-0.000650882720947266,0.000258345426115704
982,-0.000339984893798828,0.000276276009366704
983,-0.0004425048828125,0.000299143782647813
984,-0.000290393829345703,0.000287700006637036
985,-0.000590324401855469,0.000288432486659484
986,-0.000600337982177734,0.000261529423874506
987,-0.000225543975830078,0.000280425658408952
988,-0.000502586364746094,0.000269577937989117
989,-0.000559329986572266,0.000253289866088366
990,-0.0000472068786621094,0.000390648096117059
991,-0.000581264495849609,0.000262709147060655
992,-0.000470161437988281,0.00027775999813147
993,-0.000491619110107422,0.000285191676228724
994,-0.000596046447753906,0.000311943355646645
995,-0.000452518463134766,0.000280574808930983
996,-0.000452041625976563,0.000263393727813019
997,-0.000314712524414062,0.000377202003103585
998,-0.000325202941894531,0.000413951781940402
999,-0.000326156616210937,0.000322742326329612
1000,-0.0004730224609375,0.000310405974017615
1001,-0.000210285186767578,0.000266148615162437
1002,-0.000636577606201172,0.000309901601364714
1003,-0.000440120697021484,0.000329165494564076
1004,-0.000520706176757813,0.000354048298650272
1005,-0.000421524047851563,0.000321714931362782
1006,-0.000360965728759766,0.00035908845823635
1007,-0.000766277313232422,0.00041829681890481
1008,-0.000283241271972656,0.000317640841574067
1009,-0.000870704650878906,0.000318378710817788
1010,-0.000258922576904297,0.000293583027264208
1011,-0.000490665435791016,0.000342171115012113
1012,-0.000747203826904297,0.000398512643268418
1013,-0.000333309173583984,0.000386716993164156
1014,-0.000466346740722656,0.000490882026831831
1015,-0.000489234924316406,0.000472468390057099
1016,-0.000156402587890625,0.000394632229770937
1017,-0.000677108764648438,0.000406448788447001
1018,-0.000119686126708984,0.000426018176523246
1019,-0.000860691070556641,0.000325184762843733
1020,-0.000198841094970703,0.00031600455736565
1021,-0.000170707702636719,0.000354643769603774
1022,-0.000391006469726562,0.000350672154066037
1023,-0.000294685363769531,0.000376294314506111
1024,-0.000253677368164062,0.000399142039780528
1025,-0.000707626342773438,0.000454957626827258
1026,-0.000213623046875,0.000445593544986293
1027,-0.00116777420043945,0.000525695179835154
1028,-0.000283718109130859,0.000530133133095309
1029,-0.000582218170166016,0.000350080319431564
1030,-0.00072479248046875,0.000406323460094831
1031,-0.000111579895019531,0.000551022423536352
1032,-0.000467300415039063,0.000434473755642818
1033,-0.000885009765625,0.000681390788957609
1034,-0.000394821166992187,0.000737589250686128
1035,-0.000705242156982422,0.00034141007744239
1036,-0.0000405311584472656,0.000431187366367834
1037,-0.000706672668457031,0.000689627213422937
1038,-0.00101232528686523,0.000618016277292876
1039,-0.0000095367431640625,0.000554471201262705
1040,-0.00112104415893555,0.000754635442148663
1041,-0.000221729278564453,0.000718602298767424
1042,-0.00106239318847656,0.000575374722633299
1043,-0.000849723815917969,0.000688180267885675
1044,-0.000809192657470703,0.000577344065719023
1045,-0.000800132751464844,0.000667212253084578
1046,-0.000924110412597656,0.000839406775858715
1047,-0.000267982482910156,0.000680781865290385
1048,-0.000865936279296875,0.000832758111412342
1049,-0.000463485717773438,0.00075268530188305
1050,-0.000523567199707031,0.000659689000074686
1051,-0.000804901123046875,0.000824327746411474
1052,0.000470161437988281,0.000881550044442006
1053,-0.000805377960205078,0.000984428436478914
1054,-0.000145435333251953,0.000923881561475867
1055,-0.000635147094726563,0.000820984536728613
1056,-0.000555038452148438,0.0010836426307913
1057,-0.000565528869628906,0.00096193928370838
1058,-0.00149440765380859,0.000991263599594096
1059,0.000414371490478516,0.000802846519034168
1060,0.0000205039978027344,0.000797591077008316
1061,-0.000492095947265625,0.0012228946087823
1062,0.000249385833740234,0.00122277560733122
1063,0.00164175033569336,0.00118361395009747
1064,-0.000660419464111328,0.00137530285442266
1065,-0.0000767707824707031,0.00145018715647449
1066,-0.00213146209716797,0.0014585518815131
1067,-0.000325679779052734,0.00131778881300927
1068,-0.00158405303955078,0.00130516175113762
1069,0.000186443328857422,0.000966963681367343
1070,-0.00123167037963867,0.0011036018742977
1071,-0.000730037689208984,0.00137718496332353
1072,-0.00135660171508789,0.00145719438309489
1073,-0.000107288360595703,0.00164168544965696
1074,-0.00123071670532227,0.0012481931949862
1075,-0.000260829925537109,0.00109812936903823
1076,-0.00106000900268555,0.00238051780835421
1077,0.00177574157714844,0.0016001006758763
1078,-0.000309944152832031,0.00164572247426583
1079,0.00107955932617187,0.00187766824053897
1080,-0.00102090835571289,0.00209779217171334
1081,0.000269889831542969,0.00249012965561833
1082,-0.000319957733154297,0.00235143830994821
1083,0.00251293182373047,0.00185659399545881
1084,-0.00112628936767578,0.00206732660576659
1085,-0.001495361328125,0.00190576105804393
1086,0.000369071960449219,0.00181919069063584
1087,-0.00228643417358398,0.00167221291415985
1088,-0.00151729583740234,0.00243582086620333
1089,0.00267505645751953,0.00319291756283001
1090,-0.00155305862426758,0.00213497670029717
1091,-0.00678205490112305,0.00175240399864663
1092,0.00143289566040039,0.00250272051487504
1093,-0.00232362747192383,0.00226360420013984
1094,-0.000609874725341797,0.00267425242833811
1095,0.00405454635620117,0.00267076760482449
1096,-0.00172901153564453,0.00286207052761291
1097,-0.00300121307373047,0.00248910092756993
1098,-0.0000734329223632813,0.00218589809210418
1099,-0.00419998168945313,0.00228387935534643
1100,-0.00485467910766602,0.00211806063225838
