Wavelength (nm),Absorbance (AU),Std.Dev.
190,3.69521522521973,0.453486857130219
191,3.30719757080078,0.519031714732768
192,3.88920497894287,0.904024746446412
193,3.86305093765259,0.480079555276551
194,3.49387311935425,0.17133593554073
195,3.33864831924439,0.17505546780687
196,3.68206262588501,0.4231660655617
197,3.99999952316284,0.713337295853967
198,3.57804393768311,0.348133231430399
199,3.64144945144653,0.213324707969502
200,3.98449993133545,0.243393387721449
201,3.88403034210205,0.160981818457935
202,3.60735845565796,0.100540891764237
203,3.70845127105713,0.0851277434905448
204,3.66317129135132,0.110141791077891
205,3.63419389724731,0.0808160785729437
206,3.78997611999512,0.0895992767577273
207,3.63930511474609,0.0515177214418359
208,3.43801546096802,0.040492030925621
209,3.03662252426147,0.0123024832552583
210,2.74694395065308,0.00488872170508635
211,2.50067472457886,0.00440352896278302
212,2.3227596282959,0.00362870558480582
213,2.1775336265564,0.00291662482958261
214,2.07774305343628,0.00170560912202453
215,1.99960088729858,0.00145239307059214
216,1.94272804260254,0.00113439630089089
217,1.88878107070923,0.00194643783192163
218,1.84936237335205,0.00138439352903603
219,1.80972719192505,0.000872623985500044
220,1.77560234069824,0.000614497883040203
221,1.74185705184937,0.000611102119539426
222,1.70981025695801,0.00083912935478996
223,1.67471170425415,0.00102674190856505
224,1.63651704788208,0.00091477999383593
225,1.59521102905273,0.000871823167969318
226,1.55101633071899,0.00096497515795133
227,1.50541591644287,0.000806012222894423
228,1.45406150817871,0.000536721262724657
229,1.39651203155518,0.000462019528250607
230,1.33686304092407,0.000396021800376853
231,1.27521753311157,0.000351552863783699
232,1.2116003036499,0.000252822640680382
233,1.14603900909424,0.000243737961589506
234,1.08158588409424,0.000159080765892146
235,1.01952457427979,0.0000982122500488243
236,0.958906650543213,0.000118465007473545
237,0.902536869049072,0.0000859312951356746
238,0.851722717285156,0.000101556240173143
239,0.806021690368652,0.000132804070934519
240,0.76629638671875,0.0000857803408986807
241,0.732326030731201,0.0000865823889677535
242,0.704858779907227,0.0000702845678131385
243,0.683008670806885,0.0000731490581224774
244,0.666636466979981,0.000088817240982973
245,0.655528068542481,0.000107488445630088
246,0.648753643035889,0.000135468756886502
247,0.646448612213135,0.000133946265277814
248,0.648538589477539,0.000100349017623641
249,0.654479026794434,0.000139455101046934
250,0.664917945861816,0.00013598472810006
251,0.679091930389404,0.000114766294141945
252,0.697473526000977,0.000152751715453492
253,0.720271587371826,0.000149857409480403
254,0.748281955718994,0.000195570678242825
255,0.780121803283691,0.000226018801008195
256,0.81490421295166,0.000256373483628331
257,0.854729175567627,0.000228698975313746
258,0.897788047790527,0.000346676027251787
259,0.943143367767334,0.000361763250768119
260,0.992138385772705,0.00028029589779009
261,1.04538202285767,0.000453090657688045
262,1.10334300994873,0.000501991549739265
263,1.16086721420288,0.00090081796207372
264,1.21537685394287,0.000874988779353676
265,1.27116680145264,0.000853401578009617
266,1.32332468032837,0.0008306235036449
267,1.37053966522217,0.000654840314847455
268,1.41721153259277,0.00115919103351751
269,1.46460103988647,0.00154987539840368
270,1.51657676696777,0.00184697541280188
271,1.55900382995605,0.00124305292188583
272,1.59299564361572,0.00174521461859512
273,1.61195516586304,0.00145803298724057
274,1.61496686935425,0.00173816294749733
275,1.60600900650024,0.00215781074512805
276,1.5866436958313,0.00236397992990215
277,1.56705141067505,0.00155725642364284
278,1.55212020874023,0.0013560162271361
279,1.53149223327637,0.0010373732380239
280,1.49808883666992,0.000774111018591098
281,1.45222806930542,0.000898164780315809
282,1.38580083847046,0.000556828212082337
283,1.29897403717041,0.000422356073505443
284,1.20228290557861,0.000362014569522653
285,1.09665870666504,0.000204820293462289
286,0.990029811859131,0.000160631144829694
287,0.889367580413818,0.000267953633557677
288,0.795584201812744,0.00019627627614589
289,0.710668087005615,0.000178655554249005
290,0.635414600372314,0.000127934618665573
291,0.568037509918213,0.0000908772063800878
292,0.508342742919922,0.0000997422066897619
293,0.454972267150879,0.0000976876305289081
294,0.408905029296875,0.000116713139345166
295,0.368298053741455,0.000102454541629506
296,0.332880973815918,0.0000824928283691406
297,0.301754951477051,0.000123911619936673
298,0.274231433868408,0.000100654439695423
299,0.251068115234375,0.0000722986405457562
300,0.230711936950684,0.000103523093164479
301,0.212577342987061,0.0000970805791449658
302,0.197189807891846,0.0000655906800777473
303,0.18400764465332,0.0000751937576348386
304,0.172474384307861,0.0000980384618827545
305,0.162342071533203,0.0000899896706549488
306,0.153892993927002,0.000122092662195802
307,0.146298408508301,0.0000751514119916216
308,0.139508724212646,0.0000677947746910445
309,0.133896827697754,0.0000808066656370546
310,0.128965854644775,0.0000822595926393426
311,0.124333381652832,0.0000559354579934463
312,0.120509624481201,0.0000727172757747965
313,0.117172718048096,0.000100094923121658
314,0.114160537719727,0.0000867738822225794
315,0.111321449279785,0.0000741217250186126
316,0.109020709991455,0.0000792540080003484
317,0.106793880462646,0.000098623481423597
318,0.104804992675781,0.0000896453857421875
319,0.102787971496582,0.0000748937994730478
320,0.10137939453125,0.000106020964998493
321,0.0996870994567871,0.000104652449559242
322,0.0981893539428711,0.000108610065288604
323,0.0969762802124023,0.000119844650820961
324,0.0958199501037598,0.0000971437956104038
325,0.0947928428649902,0.0000800319713441813
326,0.0936970710754395,0.0000816311233918461
327,0.0928215980529785,0.0000874759033869701
328,0.0920572280883789,0.0000906116075359835
329,0.0913205146789551,0.00010351870035718
330,0.090550422668457,0.000100744757304958
331,0.0900983810424805,0.0000921764585128041
332,0.0898327827453613,0.00010251000821522
333,0.0895051956176758,0.000105295750920742
334,0.0889186859130859,0.0000899517627082586
335,0.0882983207702637,0.0000848703167448204
336,0.0881080627441406,0.00012656231938308
337,0.0879406929016113,0.0000937127570841846
338,0.0875368118286133,0.0000766492557026986
339,0.0872249603271484,0.000105913680191311
340,0.0868678092956543,0.0000953245066360867
341,0.0868215560913086,0.0000932993772255137
342,0.0863022804260254,0.00011262445497438
343,0.0861992835998535,0.000109017530771054
344,0.086176872253418,0.0000721333431142833
345,0.0857377052307129,0.0000690212521466149
346,0.0856504440307617,0.0000937418679594664
347,0.0853953361511231,0.0000910946192646756
348,0.0850014686584473,0.0000903578106076922
349,0.0849580764770508,0.0000849894518248035
350,0.0847377777099609,0.0000777083655240628
351,0.084442138671875,0.0000805981755836516
352,0.0842552185058594,0.0000769970208092939
353,0.0839500427246094,0.0000984596568458252
354,0.0835890769958496,0.00011182212619748
355,0.0833816528320313,0.0000907695571398305
356,0.0825700759887695,0.000144568974011514
357,0.0821151733398438,0.000119132971175769
358,0.0821170806884766,0.000154262532300908
359,0.0823163986206055,0.000156073689639171
360,0.0826816558837891,0.000129597988632697
361,0.0818209648132324,0.000170061818235833
362,0.0806374549865723,0.000136608644622801
363,0.0796709060668945,0.000131014859869255
364,0.0792808532714844,0.000156939561674909
365,0.0795221328735352,0.000156939561674909
366,0.0797939300537109,0.000169099123072063
367,0.0796527862548828,0.00013332012209996
368,0.0786733627319336,0.000133568888855069
369,0.0780854225158691,0.00015818924497127
370,0.0774927139282227,0.00012457410684549
371,0.0771369934082031,0.0000799353177719693
372,0.0768647193908691,0.000110782315852865
373,0.0762462615966797,0.000152602791058669
374,0.0758447647094727,0.000111496315325589
375,0.0758762359619141,0.00013291702141539
376,0.0750479698181152,0.000132310067718694
377,0.0746445655822754,0.000116705346520202
378,0.0744309425354004,0.0000872651083649401
379,0.0741329193115234,0.000124354888984089
380,0.0736188888549805,0.0000939236065100064
381,0.0732016563415527,0.000107668098658784
382,0.0730047225952148,0.000128505623612708
383,0.0723552703857422,0.0000997125673111552
384,0.0721783638000488,0.0000868576913762186
385,0.0720582008361816,0.000103632852830971
386,0.0714302062988281,0.000139572443617192
387,0.0711936950683594,0.000129867893452066
388,0.0708847045898438,0.000118482280202
389,0.0705471038818359,0.000120183776385196
390,0.0702238082885742,0.000108316580692296
391,0.0697355270385742,0.000118447732226283
392,0.069645881652832,0.000136631944466114
393,0.0695958137512207,0.000154727596228885
394,0.0684151649475098,0.000088406689337887
395,0.0689315795898438,0.000122460843282797
396,0.0684185028076172,0.000178273337486998
397,0.0681118965148926,0.000149343692774678
398,0.0678930282592773,0.000151436154551033
399,0.0676498413085938,0.000164109588717113
400,0.0673012733459473,0.000170792925995087
401,0.0670986175537109,0.0000998174055860121
402,0.0670638084411621,0.0000755617652259064
403,0.0666942596435547,0.000114869269751843
404,0.0665717124938965,0.00017001902865988
405,0.066685676574707,0.000126144834623615
406,0.0662984848022461,0.000128325021216833
407,0.0659770965576172,0.000128753096775243
408,0.0657463073730469,0.000181448913483052
409,0.0658450126647949,0.000149368050563672
410,0.0654692649841309,0.000159440541924741
411,0.0654516220092773,0.000161562674962019
412,0.0651202201843262,0.000155056416962883
413,0.0649833679199219,0.000154941996075945
414,0.0646905899047852,0.000153562295592273
415,0.0643715858459473,0.000134819329530049
416,0.0644640922546387,0.000148831258348775
417,0.0643548965454102,0.000137590451040047
418,0.0641727447509766,0.000129993890467749
419,0.0642361640930176,0.000118783189281793
420,0.0640444755554199,0.000118597367436711
421,0.0640482902526856,0.000144713596469107
422,0.0636196136474609,0.000131928011081152
423,0.0637469291687012,0.000162169506370544
424,0.0632486343383789,0.000145055713177788
425,0.0633845329284668,0.000117818346983012
426,0.0628514289855957,0.000149535402957926
427,0.0634374618530273,0.00018499315294981
428,0.0627212524414063,0.000157145156280868
429,0.062859058380127,0.000152435823006262
430,0.0629396438598633,0.000132031378652507
431,0.0622854232788086,0.000181323560159984
432,0.0622091293334961,0.000206513983922484
433,0.0623984336853027,0.000177726618694482
434,0.0620722770690918,0.000181308511937197
435,0.061518669128418,0.000126288950784659
436,0.0622367858886719,0.000110140094117661
437,0.0615110397338867,0.000110451379268125
438,0.0614347457885742,0.000160177543797545
439,0.061577320098877,0.000149188318382463
440,0.0611786842346191,0.000136532059998881
441,0.0616402626037598,0.000130517568795189
442,0.0609140396118164,0.000130360686185012
443,0.061063289642334,0.000153695497296272
444,0.0608983039855957,0.0000988169513068737
445,0.0606160163879395,0.0000740281049705636
446,0.0607767105102539,0.0000977062492226549
447,0.0604677200317383,0.000121133532810092
448,0.0604958534240723,0.0001300743246651
449,0.0603723526000977,0.000159702723589231
450,0.0602960586547852,0.000137848006166726
451,0.0601792335510254,0.000156933766377122
452,0.060302734375,0.000116391252175186
453,0.0600714683532715,0.000103711807864474
454,0.0598912239074707,0.0000911744568078393
455,0.0601067543029785,0.0000929551204302039
456,0.0598411560058594,0.000121898828696449
457,0.0597658157348633,0.000137613584650339
458,0.0596413612365723,0.000113689418831508
459,0.059626579284668,0.000114444891542751
460,0.0592169761657715,0.000106429797346565
461,0.0595407485961914,0.000109693276477895
462,0.059079647064209,0.000135038397393287
463,0.0592308044433594,0.000137100426700799
464,0.0594120025634766,0.000102643005730238
465,0.0591673851013184,0.0000916867467439388
466,0.0590095520019531,0.000101453198766546
467,0.0586915016174316,0.000111161368134968
468,0.0589327812194824,0.000116246601150064
469,0.0587162971496582,0.00011041225920415
470,0.0585370063781738,0.0000842343333557137
471,0.0586929321289063,0.0000897315808107476
472,0.0585875511169434,0.000100681543485438
473,0.0586342811584473,0.0000865823889677535
474,0.0582408905029297,0.0000999221338646409
475,0.0586318969726563,0.000135213396137511
476,0.058344841003418,0.000123145908000882
477,0.0583319664001465,0.0000802603488590861
478,0.0585155487060547,0.000110737153042709
479,0.0580763816833496,0.0000813171644195743
480,0.0582709312438965,0.0000678484151106249
481,0.0579681396484375,0.0000706298693133756
482,0.0580835342407227,0.0000842869532562649
483,0.0580849647521973,0.000113158189744539
484,0.0580296516418457,0.0000891723733989441
485,0.0585980415344238,0.0000859127711823929
486,0.058384895324707,0.0000717968564491059
487,0.0576181411743164,0.0000859960975497791
488,0.0580229759216309,0.0000745499480137909
489,0.0580673217773438,0.0000671562123143981
490,0.0579414367675781,0.0000784277544501327
491,0.0578341484069824,0.0000785349496725701
492,0.057765007019043,0.000102527751185186
493,0.0578203201293945,0.0000891111566594186
494,0.0580177307128906,0.0000866663833016685
495,0.0579986572265625,0.000104513307134991
496,0.0581178665161133,0.0000845266999441755
497,0.0578203201293945,0.0000898581880650843
498,0.0579075813293457,0.0000958739182649176
499,0.0580835342407227,0.0000943487116690129
500,0.0579113960266113,0.0000877224866935539
501,0.0580301284790039,0.0000759953377271139
502,0.0580658912658691,0.0000731723671158534
503,0.0580925941467285,0.0000897467831117141
504,0.0580410957336426,0.0000711558641629057
505,0.0582795143127441,0.0000836084701320789
506,0.0582995414733887,0.0000558449400785727
507,0.0582566261291504,0.0000793715466997187
508,0.0583281517028809,0.0000925260699899686
509,0.0583195686340332,0.000092240570982002
510,0.0586700439453125,0.0000862653639856782
511,0.0585389137268066,0.0000757285866897647
512,0.0585126876831055,0.0000927763863145089
513,0.058650016784668,0.0000972139879138928
514,0.058680534362793,0.0000804343866829463
515,0.0587401390075684,0.0000623563727597646
516,0.058891773223877,0.0000686546159550703
517,0.0588412284851074,0.000076655188307638
518,0.0590848922729492,0.0000801894937956965
519,0.0589303970336914,0.0000789478764201411
520,0.0590553283691406,0.0000797102878340411
521,0.0591602325439453,0.0000657067070344884
522,0.059074878692627,0.0000743284976702722
523,0.0592756271362305,0.000086281177018437
524,0.0593638420104981,0.0000767204166842109
525,0.0594878196716309,0.0000782245508362193
526,0.0594320297241211,0.00010575899887198
527,0.0593905448913574,0.0000771460041397259
528,0.059453010559082,0.0000828736945021656
529,0.0595812797546387,0.000103135809904152
530,0.0596041679382324,0.0000815056849270339
531,0.059626579284668,0.0000732189628416063
532,0.0597691535949707,0.0000905814906702494
533,0.0596580505371094,0.0000778954036055921
534,0.0596909523010254,0.000083051838138875
535,0.0596828460693359,0.0000727360342623457
536,0.0597329139709473,0.0000618970631873473
537,0.0599613189697266,0.0000789565160914699
538,0.0600104331970215,0.0000692235524223231
539,0.0599436759948731,0.0000834383279338478
540,0.0598044395446777,0.0000901411430238121
541,0.0599403381347656,0.0000823618008130795
542,0.0600318908691406,0.000103784130545555
543,0.0599431991577148,0.0000889272535948098
544,0.0598382949829102,0.000099184421366094
545,0.0599584579467773,0.000109999625055666
546,0.0598244667053223,0.000081060914420169
547,0.059941291809082,0.0000739574278653766
548,0.0597834587097168,0.0000851337963351128
549,0.0598173141479492,0.0000652431036813298
550,0.0598526000976563,0.0000604728410858232
551,0.0597100257873535,0.0000624274362527967
552,0.0598416328430176,0.0000669391740459932
553,0.0596818923950195,0.0000768373923071246
554,0.0597114562988281,0.0000790040173952703
555,0.0596122741699219,0.0000803849020800624
556,0.0595650672912598,0.0000706636631261699
557,0.0595312118530273,0.0000624492856740757
558,0.0594968795776367,0.0000479654097759244
559,0.0594854354858398,0.0000577406287030555
560,0.059502124786377,0.0000750727067129686
561,0.0594511032104492,0.0000957671372271209
562,0.0593304634094238,0.0000697079824546466
563,0.0593252182006836,0.0000769719160540018
564,0.0592446327209473,0.0000687290921468714
565,0.059145450592041,0.0000747524945917718
566,0.0591249465942383,0.0000721869094352154
567,0.0591273307800293,0.0000820159912109375
568,0.05902099609375,0.000075349324322236
569,0.0590181350708008,0.0000558683464015803
570,0.0589866638183594,0.0000650231765977863
571,0.0587263107299805,0.0000504670806117945
572,0.0586199760437012,0.0000596075057296786
573,0.0586233139038086,0.0000814414973238737
574,0.0586142539978027,0.000062080462295015
575,0.0581746101379395,0.0000913214742977076
576,0.0582661628723145,0.0000872963693755666
577,0.0581321716308594,0.0000706845750089055
578,0.0583887100219727,0.0000778881058602716
579,0.0574760437011719,0.0000749362906903024
580,0.0581088066101074,0.0000676806476437641
581,0.0577583312988281,0.0000636840972997257
582,0.0578417778015137,0.0000618676688781093
583,0.0567493438720703,0.0000649742028189226
584,0.057744026184082,0.0000577672030450029
585,0.0576157569885254,0.0000745484230227808
586,0.0569248199462891,0.0000644771299128928
587,0.0572185516357422,0.0000697259200608152
588,0.0571432113647461,0.0000777887885531761
589,0.0567264556884766,0.0000652483310054677
590,0.0569119453430176,0.000075570792017205
591,0.0566692352294922,0.0000806390708279863
592,0.0567893981933594,0.0000819965827510901
593,0.0568022727966309,0.000085243227999735
594,0.0563483238220215,0.0000866532645538372
595,0.056513786315918,0.0000845186296706236
596,0.0561637878417969,0.0000794001882807245
597,0.0562410354614258,0.000078063063452276
598,0.0560626983642578,0.0000781693044222694
599,0.0562567710876465,0.0000793228322776019
600,0.0557651519775391,0.0000504118594224514
601,0.055844783782959,0.000063023731532795
602,0.0557265281677246,0.000091052177096493
603,0.0557823181152344,0.0000730697519275793
604,0.0555167198181152,0.0000673624260312868
605,0.0554165840148926,0.0000773755532975096
606,0.0554823875427246,0.0000635786851234734
607,0.055325984954834,0.0000696002597359957
608,0.0552067756652832,0.0000815558834649032
609,0.055088996887207,0.0000601797964640942
610,0.0549368858337402,0.0000417048549967867
611,0.0547037124633789,0.0000734778056517718
612,0.0546679496765137,0.0000701550467083032
613,0.0545148849487305,0.0000658708725347038
614,0.0545601844787598,0.0000732779415599767
615,0.0544233322143555,0.0000766952213877528
616,0.0541024208068848,0.0000803849020800624
617,0.0540499687194824,0.0000650703664051761
618,0.0539302825927734,0.0000867031052356496
619,0.0537443161010742,0.0000823341894941859
620,0.0537948608398438,0.0000769541901193105
621,0.0533747673034668,0.000082990216308014
622,0.0533318519592285,0.0000678014820642681
623,0.0529284477233887,0.0000694841897438661
624,0.0526046752929688,0.0000778486862141161
625,0.0525016784667969,0.00010493451460013
626,0.0526671409606934,0.0000913513472047211
627,0.0525498390197754,0.0000813185624744776
628,0.0526738166809082,0.0000719091936189663
629,0.053858757019043,0.0000852445616651893
630,0.0542526245117188,0.0000717984398831128
631,0.0534615516662598,0.0000735922113771719
632,0.0531129837036133,0.0000663729234079125
633,0.0528101921081543,0.0000756700156514251
634,0.0519776344299316,0.0000744980808067822
635,0.0516700744628906,0.0000718965446841949
636,0.0515518188476563,0.0000615156897092255
637,0.0512681007385254,0.0000708243648326841
638,0.0513949394226074,0.0000791793808576212
639,0.0513958930969238,0.0000809149243612566
640,0.051264762878418,0.0000642722719020624
641,0.0514025688171387,0.0000650528926900982
642,0.0512294769287109,0.0000624875037778484
643,0.0511059761047363,0.0000661962647975093
644,0.0510673522949219,0.0000854882721552867
645,0.0508670806884766,0.0000923194175150283
646,0.0508685111999512,0.0000979688602965744
647,0.0507259368896484,0.0000788527775583753
648,0.0506558418273926,0.0000739128358262253
649,0.0505242347717285,0.000092947781964612
650,0.0505838394165039,0.0000954556057532091
651,0.0503273010253906,0.000075653487416358
652,0.0503497123718262,0.000080171061221798
653,0.05010986328125,0.0000905036423806633
654,0.0501766204833984,0.0000770147368859503
655,0.0498976707458496,0.0000656253364682442
656,0.0541186332702637,0.0000570722488391865
657,0.0470972061157227,0.000076374369194257
658,0.0484662055969238,0.0000923218803841484
659,0.0497508049011231,0.0000601108040480754
660,0.0496463775634766,0.0000477706593379869
661,0.0495872497558594,0.0000531325846755376
662,0.0495615005493164,0.0000635268082422053
663,0.0494780540466309,0.0000657136275365914
664,0.0493674278259277,0.000091279137610638
665,0.0493865013122559,0.0000859167409371685
666,0.0492124557495117,0.0000652936169511278
667,0.0491728782653809,0.0000873900853117062
668,0.0491766929626465,0.0000679338169873538
669,0.0491580963134766,0.0000758440941342062
670,0.0489234924316406,0.000059257449799224
671,0.0488595962524414,0.0000573187222756839
672,0.0488338470458984,0.0000653319113100203
673,0.0487651824951172,0.000081567034500124
674,0.0486059188842773,0.0000950091306932987
675,0.0486021041870117,0.0000875096874004704
676,0.0485663414001465,0.0000825809823601588
677,0.0483813285827637,0.0000706684894945063
678,0.0484905242919922,0.0000804145964959442
679,0.048365592956543,0.0000653110262613828
680,0.0482645034790039,0.0000820326233788601
681,0.0482287406921387,0.000061291662285119
682,0.0481939315795898,0.0000530126270663731
683,0.0481204986572266,0.0000528493919467827
684,0.0481066703796387,0.0000641731408739499
685,0.0481109619140625,0.0000641146526024917
686,0.0480513572692871,0.0000748482464006058
687,0.0478649139404297,0.0000780222751055213
688,0.0478978157043457,0.0000815837581951808
689,0.0478625297546387,0.0000944667243731674
690,0.0478324890136719,0.0000911968985238124
691,0.0477499961853027,0.0000834042578440108
692,0.0478405952453613,0.0000647164824574415
693,0.0477313995361328,0.0000718111060982388
694,0.0477938652038574,0.0000705912280032999
695,0.0476746559143066,0.0000614842640674765
696,0.0477042198181152,0.000060273235348654
697,0.0477190017700195,0.000087559040587451
698,0.0477104187011719,0.0000767456037091473
699,0.0475616455078125,0.0000632128544857718
700,0.0476388931274414,0.0000646743081405105
701,0.0476055145263672,0.000075009076776366
702,0.0475659370422363,0.0000617941219323783
703,0.0476388931274414,0.0000783407317272676
704,0.0475902557373047,0.0000709190080359581
705,0.0475468635559082,0.0000661120576222314
706,0.047630786895752,0.0000512428033079394
707,0.0477280616760254,0.0000673134652520039
708,0.0476903915405273,0.0000777390823177484
709,0.0476512908935547,0.0000713760083780332
710,0.0477585792541504,0.0000654431856700812
711,0.0478405952453613,0.0000677981284606027
712,0.0479264259338379,0.0000647849571660476
713,0.0479855537414551,0.0000712979190571811
714,0.0481648445129395,0.0000680642243557939
715,0.0482254028320313,0.0000715049078014367
716,0.0482687950134277,0.0000681960494274842
717,0.0484662055969238,0.0000693810354694182
718,0.0486721992492676,0.0000843961359123431
719,0.0488572120666504,0.0000687373622981735
720,0.0489611625671387,0.0000694285382202198
721,0.0491771697998047,0.0000741171235188501
722,0.0493335723876953,0.0000787575638659003
723,0.0495023727416992,0.000072620279731149
724,0.0498170852661133,0.0000744156291743873
725,0.0499973297119141,0.000070902975706594
726,0.0502443313598633,0.0000657534062885951
727,0.0504546165466309,0.0000628629817874031
728,0.0506935119628906,0.0000703363094730868
729,0.0510458946228027,0.0000760955017889546
730,0.0513978004455566,0.0000673506111708905
731,0.0518193244934082,0.00007267818004203
732,0.0521631240844727,0.0000726813084745494
733,0.0525317192077637,0.0000669255857841844
734,0.0529680252075195,0.0000656201391765053
735,0.0534887313842773,0.0000640117255287067
736,0.053647518157959,0.0000597151685250591
737,0.0540814399719238,0.0000563334215911051
738,0.0543575286865234,0.0000825451811555789
739,0.0545477867126465,0.0000652674942787675
740,0.0548486709594727,0.0000639548672701953
741,0.0548443794250488,0.0000724149092159015
742,0.0549988746643066,0.0000820492521752832
743,0.0551886558532715,0.0000803834877866454
744,0.0552120208740234,0.0000714731023965176
745,0.0552606582641602,0.0000700545031441
746,0.0552949905395508,0.0000677847123867678
747,0.0553598403930664,0.0000783508893586526
748,0.0554327964782715,0.0000717731007470199
749,0.055333137512207,0.0000576490010938264
750,0.0554409027099609,0.000061369516537461
751,0.0554227828979492,0.0000562940547614937
752,0.0552458763122559,0.0000740910429554474
753,0.055269718170166,0.0000680575428769955
754,0.0553660392761231,0.00006192644354414
755,0.0554494857788086,0.0000630363573824339
756,0.055333137512207,0.0000612935171070198
757,0.0554184913635254,0.0000732794929904869
758,0.0553646087646484,0.0000634516010126877
759,0.055211067199707,0.0000645722731540248
760,0.0551714897155762,0.0000790198448177548
761,0.0551962852478027,0.0000677595500887158
762,0.0551109313964844,0.0000674636113867852
763,0.0549888610839844,0.000063562589932686
764,0.0551328659057617,0.0000715096773920725
765,0.0550518035888672,0.0000629027559019724
766,0.0549168586730957,0.0000510906037749438
767,0.0547938346862793,0.0000613861867452335
768,0.0548038482666016,0.0000792626143031628
769,0.0548610687255859,0.0000707537010497235
770,0.0547399520874023,0.0000602845514327419
771,0.0545697212219238,0.000069415437259971
772,0.0544981956481934,0.0000644524402202729
773,0.0543770790100098,0.0000658173477477212
774,0.0543031692504883,0.000069121653930506
775,0.0541782379150391,0.000055082432091498
776,0.0541043281555176,0.0000631390738888859
777,0.0540318489074707,0.0000565187824205544
778,0.0538802146911621,0.0000646109950483487
779,0.0538773536682129,0.0000564704860798217
780,0.053774356842041,0.0000598568349547212
781,0.0534873008728027,0.0000574108770114609
782,0.0534272193908691,0.0000654397112103792
783,0.0532875061035156,0.0000742749452189575
784,0.0531153678894043,0.0000736231013262224
785,0.0529098510742188,0.0000713090799100118
786,0.0528841018676758,0.0000644347989334445
787,0.0527935028076172,0.000057979359297861
788,0.0526590347290039,0.0000637893352820993
789,0.0524163246154785,0.0000609736579776241
790,0.0522346496582031,0.0000724510087664931
791,0.0521697998046875,0.0000459696741294671
792,0.0520501136779785,0.0000566433573702994
793,0.0519189834594727,0.0000694039718911308
794,0.0517845153808594,0.0000709734908664451
795,0.0517020225524902,0.0000737126089761237
796,0.0514659881591797,0.000077275577242526
797,0.0512771606445313,0.0000690245463240251
798,0.051264762878418,0.0000675797872514612
799,0.0511288642883301,0.0000613491356875696
800,0.0509438514709473,0.000070250591638045
801,0.0508947372436523,0.0000566614180660742
802,0.0508475303649902,0.0000723363697801811
803,0.0506429672241211,0.000087512285630527
804,0.0505547523498535,0.0000853272082126665
805,0.0504369735717773,0.0000750621054692932
806,0.0503993034362793,0.0000822526821010317
807,0.0504074096679688,0.0000815935121010111
808,0.0502972602844238,0.0000717303206573406
809,0.0501723289489746,0.0000672543271886071
810,0.0502085685729981,0.0000813171644195743
811,0.0501999855041504,0.000076041698693525
812,0.0501198768615723,0.0000727657253110731
813,0.0501360893249512,0.0000642811154525951
814,0.050074577331543,0.0000753779860148235
815,0.0500993728637695,0.0000724917953070827
816,0.050107479095459,0.0000737388233873409
817,0.0501484870910645,0.0000744141014307401
818,0.0502915382385254,0.0000858743874251825
819,0.0503578186035156,0.0000721554046506506
820,0.0504279136657715,0.0000614509723418694
821,0.0505194664001465,0.0000620749682056822
822,0.0506467819213867,0.0000627163233256899
823,0.0507416725158691,0.0000871138553365268
824,0.0508518218994141,0.0000791621492184928
825,0.0511641502380371,0.0000795160811831506
826,0.051386833190918,0.0000806475293239269
827,0.0517406463623047,0.000087369268235348
828,0.0521893501281738,0.0000650825952143272
829,0.0526385307312012,0.000077602958498948
830,0.0531330108642578,0.0000538361610896884
831,0.0535860061645508,0.0000687307462567415
832,0.0541343688964844,0.0000651245051270458
833,0.0546402931213379,0.0000745590973048332
834,0.0551252365112305,0.0000753945746461959
835,0.0555768013000488,0.000081119797466479
836,0.0558419227600098,0.0000831749448393913
837,0.0562305450439453,0.0000819438794736345
838,0.0565013885498047,0.000085433730782421
839,0.0567841529846191,0.0000855945942810165
840,0.0569415092468262,0.0000805007895849945
841,0.0571475028991699,0.0000688365266136878
842,0.057370662689209,0.0000820284656530376
843,0.0575003623962402,0.0000699164261697782
844,0.0576906204223633,0.0000666498274351436
845,0.0577645301818848,0.0000681276657226908
846,0.0580353736877441,0.000074164658582422
847,0.0581440925598145,0.0000605930394040404
848,0.0582480430603027,0.0000648007487463348
849,0.0582542419433594,0.0000823742228870924
850,0.0584139823913574,0.0000857684121434861
851,0.0584578514099121,0.0000841479114455798
852,0.0586791038513184,0.0000818758699073959
853,0.0587539672851563,0.000079180816658277
854,0.0588960647583008,0.0000743437912853123
855,0.0588765144348145,0.0000764948464769463
856,0.0590338706970215,0.000083330618910676
857,0.0589828491210938,0.0000881542822516229
858,0.0591235160827637,0.0000734700691099602
859,0.0591754913330078,0.0000620108345299105
860,0.0592498779296875,0.0000864588743500151
861,0.0593490600585938,0.0000758875513613806
862,0.0593714714050293,0.0000901335754510309
863,0.0594325065612793,0.000083615268618859
864,0.0595746040344238,0.0000816283379646059
865,0.0595626831054688,0.0000842019355339939
866,0.0596208572387695,0.0000783436340420497
867,0.0596957206726074,0.0000826153919645422
868,0.0598721504211426,0.000066600342796014
869,0.0599308013916016,0.0000656028118969721
870,0.0599436759948731,0.0000513845969730671
871,0.0600528717041016,0.0000654622919021217
872,0.0601005554199219,0.0000748725448215358
873,0.0603303909301758,0.0000571797146375876
874,0.0604619979858398,0.0000736339097469319
875,0.0606265068054199,0.0000775516672235287
876,0.0607132911682129,0.0000907169378285684
877,0.0608363151550293,0.0000717683486630112
878,0.0610141754150391,0.0000643111744280292
879,0.0611424446105957,0.0000614602218523365
880,0.0612831115722656,0.0000735798517664911
881,0.0614728927612305,0.0000774548541188329
882,0.0616569519042969,0.0000826429093326452
883,0.0617694854736328,0.0000938170292452682
884,0.0619487762451172,0.0000723913563322004
885,0.0621075630187988,0.0000690936877696226
886,0.0622410774230957,0.0000706218207839992
887,0.0624294281005859,0.000084895764112231
888,0.0625081062316895,0.0000919690204715057
889,0.0627584457397461,0.0000952362111459214
890,0.0629439353942871,0.000104988670999004
891,0.0631136894226074,0.0000895768776325211
892,0.0633311271667481,0.0000923120285134145
893,0.0634584426879883,0.000108756510593881
894,0.063723087310791,0.0000917834117647178
895,0.0637545585632324,0.000106449022961176
896,0.0640931129455566,0.000103749071299374
897,0.0642404556274414,0.000112128741887658
898,0.064394474029541,0.0000923489676094148
899,0.0645108222961426,0.0000858214161420832
900,0.0648436546325684,0.000102083251774785
901,0.0649518966674805,0.000102656296004887
902,0.0651183128356934,0.0000958549436631258
903,0.0653586387634277,0.000103375832503695
904,0.0656671524047852,0.0000819771696962036
905,0.0659618377685547,0.0000873145997964348
906,0.0661892890930176,0.000100688318292952
907,0.0665092468261719,0.000074534696699621
908,0.0666441917419434,0.0000572859865732639
909,0.0670933723449707,0.0000836030309446072
910,0.0673999786376953,0.000089269214049046
911,0.0677862167358398,0.000109388148553102
912,0.0681667327880859,0.0000804598240566042
913,0.0685482025146484,0.000107111254849874
914,0.0689840316772461,0.0000931310701294554
915,0.0693984031677246,0.0000887839545203184
916,0.0699725151062012,0.000122868639427353
917,0.0705628395080566,0.000112588109522987
918,0.0711750984191895,0.0000695283518688496
919,0.0720057487487793,0.0000912268122241109
920,0.0727128982543945,0.0000884992295125645
921,0.0734620094299316,0.0000863773105971367
922,0.0744619369506836,0.00011152486177573
923,0.0755572319030762,0.0000934479180028789
924,0.0766725540161133,0.000110755630963678
925,0.0779571533203125,0.0000985219884323879
926,0.0793290138244629,0.0000871660412007511
927,0.0810008049011231,0.000102301297808489
928,0.0824117660522461,0.000132179397869176
929,0.0841245651245117,0.0000976876305289081
930,0.08599853515625,0.0000973285264776773
931,0.0879998207092285,0.000105589018376361
932,0.0901856422424316,0.0000891315669108679
933,0.0923547744750977,0.000101141196642076
934,0.0947108268737793,0.0000803396323417467
935,0.0972704887390137,0.000102078797006099
936,0.099815845489502,0.000101672596014615
937,0.102585792541504,0.000084580482089371
938,0.105445861816406,0.0000972817923318552
939,0.108437061309814,0.0000897999708979333
940,0.111420631408691,0.000101186148287247
941,0.114619255065918,0.0000923144915796666
942,0.1179518699646,0.000115418234680955
943,0.121323108673096,0.0000645229571343842
944,0.124818801879883,0.000069235047668751
945,0.128541946411133,0.000127916844784402
946,0.132284164428711,0.000121667315931832
947,0.13643217086792,0.0000843907474918484
948,0.140883445739746,0.000079385868781919
949,0.145719051361084,0.000113158189744539
950,0.1507248878479,0.000167178862854974
951,0.156319618225098,0.000142650041911902
952,0.162276268005371,0.000122942638855542
953,0.168455600738525,0.000180428526999641
954,0.174417018890381,0.000135263834470142
955,0.181027412414551,0.000134997980852033
956,0.187790870666504,0.00019549160434274
957,0.194111347198486,0.000154468746033017
958,0.200228691101074,0.000122924143174787
959,0.205868244171143,0.000141192118647468
960,0.21110725402832,0.000163904406594114
961,0.216126918792725,0.000130280428785318
962,0.220082759857178,0.000118741069618876
963,0.224242687225342,0.000142356457334764
964,0.227330684661865,0.000130587233902256
965,0.230267524719238,0.000136798256508187
966,0.232715606689453,0.000124632499820792
967,0.234660625457764,0.000191899558297527
968,0.23679256439209,0.000196443020227814
969,0.238290786743164,0.00014806542400654
970,0.239592552185059,0.000158447757155915
971,0.240749835968018,0.000146983458749324
972,0.241945743560791,0.000180413404122448
973,0.243088722229004,0.000226183723938588
974,0.243605136871338,0.000174634407663123
975,0.244071483612061,0.0001603903290091
976,0.244564533233643,0.000180750846960912
977,0.244597911834717,0.000234056625342225
978,0.244405746459961,0.000188296950198127
979,0.244677543640137,0.000200996902097404
980,0.244224071502686,0.000194675741228531
981,0.243444919586182,0.000165552477595254
982,0.243197441101074,0.000174478097931355
983,0.242307186126709,0.000154583517214423
984,0.241116046905518,0.000211380357906548
985,0.240308284759521,0.000241232479152868
986,0.238997459411621,0.00029016158176527
987,0.23751974105835,0.000253505218146047
988,0.236056804656982,0.000186476862981942
989,0.234631538391113,0.000250756506798474
990,0.232670307159424,0.000201290806953482
991,0.230769157409668,0.000219821412754071
992,0.228861808776855,0.000216847169847946
993,0.226958751678467,0.000294053533029202
994,0.224646091461182,0.000320502682667465
995,0.222512245178223,0.000272423874990191
996,0.220390319824219,0.000230414504146968
997,0.21794319152832,0.000233188484341744
998,0.215268611907959,0.000222146758963977
999,0.213000774383545,0.000197969557479929
1000,0.210026741027832,0.000281183558222248
1001,0.208185195922852,0.000288823222831221
1002,0.205708980560303,0.000262743764613687
1003,0.20316743850708,0.000280879348494315
1004,0.20053243637085,0.000281713520578452
1005,0.197635650634766,0.000262542919268387
1006,0.194916248321533,0.000204228859428109
1007,0.192315578460693,0.000255670106202942
1008,0.189558506011963,0.000311908366766983
1009,0.186864376068115,0.000243741693005549
1010,0.184160709381104,0.00028631202639812
1011,0.18178653717041,0.000191510530633945
1012,0.178394317626953,0.000205161923363111
1013,0.176022529602051,0.000452110027819838
1014,0.173357486724854,0.000410890886342728
1015,0.169972896575928,0.000399014416423219
1016,0.167623519897461,0.000334003922311501
1017,0.164364337921143,0.00032965142946245
1018,0.162696361541748,0.000285860595334324
1019,0.159886837005615,0.000299478031800718
1020,0.157233715057373,0.000307361405616511
1021,0.155007362365723,0.000381765251129157
1022,0.152005195617676,0.00030099266807184
1023,0.148988723754883,0.000323029636602915
1024,0.147412300109863,0.000445283191849987
1025,0.14441967010498,0.000428725134846911
1026,0.14150857925415,0.000367876081886023
1027,0.140218257904053,0.000378040155880021
1028,0.13718318939209,0.00036761887427857
1029,0.134860515594482,0.000336088684697046
1030,0.132923126220703,0.000439170905726659
1031,0.131072044372559,0.000409649467732507
1032,0.128663063049316,0.000448652836162198
1033,0.125750064849854,0.000424092438349236
1034,0.124613761901855,0.000496072009316099
1035,0.123222827911377,0.000448742022692483
1036,0.120304584503174,0.000454533625219013
1037,0.119032859802246,0.000583960256748307
1038,0.117933750152588,0.000638981719204483
1039,0.116112232208252,0.000519317479897724
1040,0.113937377929687,0.000606116863199952
1041,0.112644672393799,0.000675481533415565
1042,0.111660003662109,0.000501469487667403
1043,0.109451293945312,0.000452624721532709
1044,0.107982635498047,0.000705770542221052
1045,0.105926990509033,0.000670399807449339
1046,0.105713844299316,0.000600557423511751
1047,0.104026317596436,0.000893160675813188
1048,0.104065418243408,0.000758923451171961
1049,0.101494312286377,0.000702256653289488
1050,0.101759910583496,0.000810567068514854
1051,0.0998001098632813,0.00064418705867732
1052,0.0996379852294922,0.000680984900344784
1053,0.0981197357177734,0.000805506546343617
1054,0.0972275733947754,0.000652948705765386
1055,0.0970144271850586,0.000619814941759946
1056,0.0957603454589844,0.000946029539906137
1057,0.095794677734375,0.000868930764525599
1058,0.0957069396972656,0.00121220971773059
1059,0.0930747985839844,0.00130395704796719
1060,0.0941634178161621,0.00123937160038686
1061,0.0937647819519043,0.000875986069422477
1062,0.0920314788818359,0.0011277834892479
1063,0.091984748840332,0.00123920721036439
1064,0.0942754745483398,0.00109281589435806
1065,0.0895943641662598,0.00170079038001621
1066,0.0916209220886231,0.00143943040744448
1067,0.0911264419555664,0.00126381098882133
1068,0.093080997467041,0.00134535022061331
1069,0.0920701026916504,0.00135685301600139
1070,0.0914897918701172,0.00185527675036825
1071,0.0934057235717773,0.00160572928846146
1072,0.0912742614746094,0.00143922820333214
1073,0.0898489952087402,0.00145667500525668
1074,0.0929608345031738,0.0018421788856072
1075,0.0924172401428223,0.00186450914194485
1076,0.0911283493041992,0.000959121406849226
1077,0.0936684608459473,0.00166834466749535
1078,0.0948772430419922,0.00136525664904847
1079,0.0923614501953125,0.00167746080248656
1080,0.0940432548522949,0.00146404880570202
1081,0.0936751365661621,0.00173266220576112
1082,0.0960478782653809,0.0020047749426689
1083,0.0979099273681641,0.00206157477896334
1084,0.0944867134094238,0.00140567323989915
1085,0.0962934494018555,0.00167325685115519
1086,0.0967302322387695,0.0023067029933266
1087,0.0959949493408203,0.00207665336100105
1088,0.0961260795593262,0.00230740944100371
1089,0.0983486175537109,0.00199312730201117
1090,0.0965919494628906,0.00216803713853899
1091,0.102852821350098,0.00294656659552313
1092,0.103463649749756,0.00212590583610029
1093,0.105808734893799,0.00168797659987164
1094,0.101235389709473,0.0018110453548026
1095,0.10745096206665,0.00206569291189288
1096,0.106667518615723,0.00303577050138963
1097,0.106035709381104,0.002587163571126
1098,0.110835552215576,0.00184328445521599
1099,0.113982677459717,0.00215343630731306
1100,0.104250907897949,0.00247949453431147
