Wavelength (nm),Absorbance (AU),Std.Dev.
190,3.17791700363159,0.154941419791141
191,3.26390266418457,0.161434376897963
192,3.27585506439209,0.323134482150524
193,3.84880352020264,0.56394941300589
194,3.73326826095581,0.277082293133229
195,3.37125730514526,0.123873402112708
196,3.58181428909302,0.17746051187903
197,3.64199542999268,0.198417698630648
198,3.39746618270874,0.144936483217582
199,3.79237794876099,0.180328552483572
200,3.77547979354858,0.119336576819073
201,3.83294248580933,0.164181620631612
202,3.59172582626343,0.109562304743034
203,3.73404598236084,0.0946736925589371
204,3.68259620666504,0.0825426419191036
205,3.44914722442627,0.0742701302415295
206,3.659499168396,0.106945855818073
207,3.50106382369995,0.0505589239980184
208,3.22744417190552,0.0310620377197253
209,2.99685573577881,0.0145273929522287
210,2.82859802246094,0.0102023691478658
211,2.68998193740845,0.00471059355737559
212,2.58715534210205,0.00389735878906358
213,2.49617767333984,0.00606509513958043
214,2.43161821365356,0.00654884757503508
215,2.35659742355347,0.00480610679194846
216,2.30451583862305,0.00385875437452972
217,2.22540855407715,0.00371437917024551
218,2.14530038833618,0.00349476240158146
219,2.06661701202393,0.00258306557314927
220,1.9708309173584,0.00203211325861652
221,1.86361408233643,0.00136436102114238
222,1.75805282592773,0.00102424443988895
223,1.64744424819946,0.000764749287693728
224,1.53378772735596,0.000597460024229102
225,1.41962909698486,0.000636060018535244
226,1.30463886260986,0.000401522936848042
227,1.19943284988403,0.000169147522383193
228,1.10354089736938,0.000237547235885412
229,1.01728248596191,0.000257696847370417
230,0.944899559020996,0.000158364504865795
231,0.885751724243164,0.000128943680120861
232,0.83851432800293,0.000099997197453941
233,0.800912380218506,0.0000921616569938788
234,0.772698879241943,0.000148840424434308
235,0.752792358398438,0.00010722582372014
236,0.739806175231934,0.0000927812877270022
237,0.733647346496582,0.000107786294678161
238,0.734433650970459,0.0000962431752915831
239,0.741665363311768,0.000112840266859047
240,0.755493640899658,0.0000709750926695049
241,0.775166511535645,0.0000671037127771465
242,0.80106258392334,0.000123647102419761
243,0.834652900695801,0.00011930080715588
244,0.87604284286499,0.000196480055251045
245,0.925688743591309,0.00027886454593654
246,0.981703758239746,0.000272390487665475
247,1.0462818145752,0.000316366990915151
248,1.11923170089722,0.000249024068607204
249,1.19930744171143,0.000434180591258843
250,1.29214572906494,0.000655240190233883
251,1.39048767089844,0.000810513208448446
252,1.49240064620972,0.00179211213336707
253,1.60053205490112,0.00231088806367707
254,1.71164417266846,0.00268428946448707
255,1.82257890701294,0.00289684001259524
256,1.92701244354248,0.00305572252226782
257,2.04251146316528,0.00511085161692651
258,2.14852380752563,0.00662449392149177
259,2.24050855636597,0.00750484270471045
260,2.31116580963135,0.00441577861138036
261,2.34862947463989,0.00695305363479166
262,2.42042970657349,0.0118408203125
263,2.45340251922607,0.0103382096449469
264,2.44842481613159,0.0132188678312348
265,2.47973489761353,0.0192248147218901
266,2.49674940109253,0.0158192952146888
267,2.47141456604004,0.0099506025366718
268,2.40496778488159,0.0100589566952306
269,2.32948970794678,0.00715271097654076
270,2.2728385925293,0.00502707052488733
271,2.21786069869995,0.00579126830297584
272,2.15754890441895,0.00382286722773184
273,2.07012128829956,0.00349369627513762
274,1.9181022644043,0.00317133291902199
275,1.71434640884399,0.00162002068359216
276,1.46924686431885,0.000656238812680482
277,1.24066352844238,0.00057509645218026
278,1.04210472106934,0.000493292130941444
279,0.873415470123291,0.000313235196661013
280,0.736057758331299,0.000171560681797361
281,0.626118659973145,0.000148663113290023
282,0.537643909454346,0.000125356489489905
283,0.465943336486816,0.000119823779399326
284,0.408647060394287,0.000141230762600016
285,0.362044334411621,0.0000832364299116122
286,0.323378086090088,0.0000636626716748175
287,0.292140007019043,0.0000599867967769958
288,0.266548633575439,0.0000678148948204951
289,0.244552135467529,0.0000806122797355811
290,0.22646951675415,0.0000656634373714171
291,0.211081981658936,0.0000800319713441813
292,0.197797775268555,0.0000627942217049987
293,0.186303615570068,0.0000675865159603196
294,0.1764235496521,0.0000699505646548929
295,0.167587757110596,0.0000569406263135801
296,0.160140991210937,0.0000670019839105618
297,0.153482437133789,0.0000669340787710823
298,0.1473388671875,0.0000678182475950662
299,0.142367839813232,0.0000858028684670647
300,0.137704849243164,0.000104343476436832
301,0.133291244506836,0.0000632829562013473
302,0.129461288452148,0.0000496071092619002
303,0.126147270202637,0.0000652047571662758
304,0.122982978820801,0.0000675225661537511
305,0.120031356811523,0.0000792138328905178
306,0.117653369903564,0.0000738358897562857
307,0.115333080291748,0.000106900893016742
308,0.113119125366211,0.000111854655088375
309,0.11127758026123,0.000102207906467963
310,0.109396934509277,0.0000892488352760265
311,0.107716083526611,0.000113190334675162
312,0.106410980224609,0.000106399883930005
313,0.104905128479004,0.0000749529770779746
314,0.103676795959473,0.000089812630013958
315,0.102418422698975,0.0000951263240921763
316,0.10129976272583,0.000076929071386807
317,0.100289821624756,0.0000841492624704969
318,0.0994362831115723,0.000118093995431546
319,0.0983724594116211,0.0000847443068227859
320,0.0974655151367188,0.0000964390627304619
321,0.0965909957885742,0.0000839761546146991
322,0.0956234931945801,0.000085638413702155
323,0.0949187278747559,0.00010008356457469
324,0.0942730903625488,0.0000873718706411341
325,0.0936579704284668,0.000113791370802628
326,0.0930304527282715,0.000098209934896129
327,0.0924429893493652,0.00011141675450532
328,0.0917572975158691,0.0000896453857421875
329,0.0913267135620117,0.000088991151895499
330,0.0910024642944336,0.000099039892763578
331,0.0906553268432617,0.0000874056948653381
332,0.0902862548828125,0.000099250879668155
333,0.0899209976196289,0.000104009541534602
334,0.0894908905029297,0.0000693187412114633
335,0.0891509056091309,0.0000972560789793546
336,0.088737964630127,0.000136618630756512
337,0.0885982513427734,0.00010205206431034
338,0.0883092880249023,0.0000922257797526289
339,0.088078498840332,0.0000948558437031666
340,0.0878381729125977,0.0000922750746301414
341,0.0877828598022461,0.000103177688887919
342,0.0873618125915527,0.000124720038022855
343,0.0870518684387207,0.0000777478563155173
344,0.0870637893676758,0.0000687505924710028
345,0.0866732597351074,0.0000821932274872408
346,0.0864686965942383,0.000100360346127264
347,0.0862984657287598,0.000095548457948816
348,0.0861029624938965,0.0000835622257533968
349,0.0858416557312012,0.0000776615356196823
350,0.0855169296264648,0.0000916793067514939
351,0.0854701995849609,0.0000744614469083378
352,0.0853352546691895,0.0000711079165389241
353,0.0849666595458984,0.0000930797858242536
354,0.0846133232116699,0.00011382733204928
355,0.0843276977539063,0.0000994202616113445
356,0.0836858749389648,0.000110808994315829
357,0.0832886695861816,0.0000904885672339974
358,0.0831699371337891,0.000112904728599157
359,0.0838141441345215,0.000145127799899459
360,0.0842719078063965,0.000132780099389435
361,0.0834665298461914,0.000147745667744445
362,0.0819926261901856,0.000172557083428481
363,0.0808253288269043,0.000198758174338086
364,0.0803709030151367,0.000185704658266361
365,0.0806951522827148,0.000185704658266361
366,0.0807361602783203,0.000154554096831382
367,0.0807857513427734,0.000118729579844828
368,0.0798406600952148,0.00011518751432692
369,0.0790777206420898,0.000125243982376311
370,0.0786828994750977,0.00012751092809479
371,0.0783352851867676,0.0000928082408686886
372,0.078214168548584,0.0000992760763515679
373,0.0774383544921875,0.00017167991961891
374,0.0771551132202148,0.00012544352247157
375,0.0769991874694824,0.000125725963574806
376,0.0763354301452637,0.000118149817732241
377,0.0761337280273438,0.000102458980061359
378,0.0755929946899414,0.000129895903350688
379,0.0754919052124023,0.000110216450606205
380,0.0752024650573731,0.0000868288911039793
381,0.0745253562927246,0.000111602308190419
382,0.074152946472168,0.000136205260275674
383,0.0737833976745606,0.000117578800020664
384,0.0735487937927246,0.0000882780003859474
385,0.0731916427612305,0.0000908421717955745
386,0.0725460052490234,0.000136004791256256
387,0.0724310874938965,0.000161633026663573
388,0.0722765922546387,0.000128516239379295
389,0.0718169212341309,0.000125812740967106
390,0.0715632438659668,0.000137087158489532
391,0.0712084770202637,0.000123042467488718
392,0.0710911750793457,0.0000871399521752346
393,0.0708084106445313,0.000116095894556715
394,0.0699739456176758,0.0000984504191803879
395,0.0701017379760742,0.000124818445116779
396,0.0694832801818848,0.000168776106305152
397,0.0694403648376465,0.000141751424847404
398,0.0692696571350098,0.000135055234049096
399,0.0691361427307129,0.000144115304564389
400,0.0685863494873047,0.000179006472879792
401,0.0684051513671875,0.000118349791527717
402,0.0685038566589356,0.000119677577530296
403,0.0680084228515625,0.000151981699361887
404,0.0677766799926758,0.000154621755343499
405,0.0680513381958008,0.000103234969440472
406,0.0675349235534668,0.000130011380395909
407,0.0673680305480957,0.000140843845944256
408,0.0673394203186035,0.000159554586889021
409,0.0670361518859863,0.000151523213573221
410,0.0666446685791016,0.000120219716793351
411,0.0666279792785645,0.000153686620774363
412,0.0663681030273438,0.000140659687694692
413,0.0666055679321289,0.000130691661934859
414,0.0661635398864746,0.000113142113854453
415,0.0656499862670898,0.0000905940405810388
416,0.0656628608703613,0.000137093792755681
417,0.0656037330627441,0.000130903742024832
418,0.0653438568115234,0.000167534820235718
419,0.0655665397644043,0.000202686644056986
420,0.0653777122497559,0.000131115479074409
421,0.0653166770935059,0.00011580763736621
422,0.064967155456543,0.000156297881270415
423,0.0648150444030762,0.000180186408654732
424,0.0644593238830566,0.000134836193540313
425,0.0644726753234863,0.000113469210562374
426,0.064241886138916,0.000153004554257823
427,0.0647764205932617,0.000126874531434323
428,0.0640072822570801,0.000116946682628925
429,0.0641055107116699,0.000135730338094003
430,0.0641603469848633,0.000118315204865385
431,0.0634169578552246,0.000138902917908195
432,0.0635666847229004,0.000145771856722149
433,0.0637073516845703,0.000134532317921313
434,0.0635662078857422,0.000165783052188323
435,0.062870979309082,0.000129369708595271
436,0.0635066032409668,0.0000905764702190514
437,0.0629620552062988,0.000101797753570502
438,0.0627665519714356,0.000139105748532981
439,0.0627636909484863,0.000164820196721323
440,0.0624394416809082,0.000122835325140665
441,0.0631070137023926,0.000126090748596765
442,0.0622386932373047,0.000150957938670421
443,0.0622949600219727,0.000135797329035397
444,0.0622062683105469,0.0000747844254833664
445,0.0618982315063477,0.000091892347660786
446,0.0621204376220703,0.000131717580189663
447,0.0618290901184082,0.00012048421031404
448,0.0618777275085449,0.000133265535835489
449,0.0618157386779785,0.000145306295464644
450,0.0616636276245117,0.000121497134769201
451,0.0614395141601563,0.000109371518527761
452,0.0615239143371582,0.000105517932784452
453,0.0613632202148438,0.000135253748308358
454,0.0611915588378906,0.000103670144645653
455,0.0613741874694824,0.000122475696023092
456,0.0610494613647461,0.000149890785633729
457,0.0610427856445313,0.000119945162220054
458,0.0609159469604492,0.000111275853702803
459,0.0609655380249023,0.000125581201335003
460,0.0604782104492188,0.000138952016984056
461,0.0608229637145996,0.000111551362652624
462,0.0601954460144043,0.000149337602706666
463,0.0606918334960938,0.000105166108233165
464,0.060753345489502,0.000102529968840541
465,0.0604524612426758,0.0000860251766324887
466,0.0601224899291992,0.0000756474762537077
467,0.0600795745849609,0.0000915750833889726
468,0.0602812767028809,0.000119704172970003
469,0.0600171089172363,0.000095517517245975
470,0.0598840713500977,0.0000900982517070907
471,0.0599055290222168,0.0000969235305517323
472,0.0597872734069824,0.000121859651826179
473,0.0599236488342285,0.000100389794253927
474,0.0594282150268555,0.0000875096874004704
475,0.059870719909668,0.0000757946124981763
476,0.0595026016235352,0.0000907795764077168
477,0.0595531463623047,0.0000853618426284793
478,0.0597391128540039,0.000124343917945912
479,0.0594120025634766,0.000111388180349561
480,0.0594868659973145,0.0000870773066227987
481,0.059237003326416,0.0000673016417965017
482,0.0593228340148926,0.0000775458032033144
483,0.0594110488891602,0.000107266105886852
484,0.0592541694641113,0.0000986488383559093
485,0.0598616600036621,0.000103573597057415
486,0.0595498085021973,0.0000692071273295727
487,0.0587201118469238,0.000072264038109593
488,0.059257984161377,0.0000751287170075651
489,0.0593061447143555,0.0000658311647622006
490,0.0591444969177246,0.0000879399422854894
491,0.0591473579406738,0.0000809697014798138
492,0.058985710144043,0.000103847645261087
493,0.0590896606445313,0.0000922553598399088
494,0.0591750144958496,0.0000844823038994739
495,0.0592660903930664,0.0000891086050492799
496,0.059349536895752,0.0000613287480646878
497,0.0589966773986816,0.0000784205062449427
498,0.0591497421264648,0.0000884889520500386
499,0.0593252182006836,0.0000941508901223448
500,0.059135913848877,0.0000903804550993939
501,0.0593419075012207,0.0000755060761665152
502,0.0592794418334961,0.0000727719745145638
503,0.059257984161377,0.0000783712006718541
504,0.0592880249023438,0.000078691134678698
505,0.0594563484191895,0.0000938630660913778
506,0.0594081878662109,0.0000894524140881521
507,0.0595483779907227,0.0000976853029426718
508,0.0595955848693848,0.0000957885029574854
509,0.0595622062683106,0.00010449590130472
510,0.0596957206726074,0.0000903552942027455
511,0.0596885681152344,0.0000673202205799602
512,0.0597119331359863,0.0000860674559416337
513,0.0598506927490234,0.0000718997071265059
514,0.0598993301391602,0.0000771121025533049
515,0.0598077774047852,0.0000958715466450668
516,0.0599570274353027,0.0000741385947409626
517,0.0599894523620606,0.0000632578004211769
518,0.0601630210876465,0.0000708821282571926
519,0.0601115226745606,0.0000680842648580505
520,0.0602307319641113,0.0000822927551452813
521,0.0603137016296387,0.0000713998961981928
522,0.0604000091552734,0.0000757616067866103
523,0.0604567527770996,0.0000801979997086131
524,0.0605096817016602,0.0000866191465108943
525,0.0605740547180176,0.0000937733945428636
526,0.0605578422546387,0.0000908697001062313
527,0.0605888366699219,0.0000625384249185973
528,0.0605745315551758,0.000066869505017359
529,0.0607190132141113,0.0000865193397047278
530,0.0607733726501465,0.0000814805740607351
531,0.0606646537780762,0.0000755632697660076
532,0.0609092712402344,0.0000856835375459401
533,0.0608425140380859,0.0000751181236684909
534,0.0608820915222168,0.0000721932087423032
535,0.060814380645752,0.0000894778288723362
536,0.0608739852905273,0.0000754759568641216
537,0.061058521270752,0.0000722152519899084
538,0.061154842376709,0.000093026029085248
539,0.061009407043457,0.0000921369825116305
540,0.060915470123291,0.0001028067990422
541,0.0610222816467285,0.0000754006059709242
542,0.0610575675964356,0.0000977434759703876
543,0.0609040260314941,0.000097543215154092
544,0.0609579086303711,0.0000684140856037624
545,0.0610923767089844,0.000101811154183155
546,0.0607929229736328,0.0000812360360681414
547,0.0609869956970215,0.0000815544894782956
548,0.0609512329101563,0.0000944859777565066
549,0.0607600212097168,0.0000760431937379821
550,0.0608739852905273,0.0000476085547318532
551,0.0608196258544922,0.0000423399445041358
552,0.0609769821166992,0.0000769157699133114
553,0.0608453750610352,0.0000849198651103353
554,0.0607056617736816,0.0000677075183734159
555,0.0607666969299316,0.0000643977365006652
556,0.0606517791748047,0.000070049634472568
557,0.0605955123901367,0.0000613009358333973
558,0.0606460571289063,0.0000515469569541172
559,0.0605401992797852,0.000058928468995951
560,0.0605564117431641,0.0000776014935044036
561,0.0605378150939941,0.000090252061190193
562,0.0604147911071777,0.00006659522159675
563,0.0603690147399902,0.000087134733432773
564,0.0602908134460449,0.0000959971617586385
565,0.0602388381958008,0.000072345799014371
566,0.060204029083252,0.0000474734438501497
567,0.0601096153259277,0.0000805572595786704
568,0.0600290298461914,0.0000818633722125703
569,0.0599565505981445,0.0000882213177776315
570,0.059969425201416,0.0000591931443545636
571,0.0597677230834961,0.0000468709339797332
572,0.0596804618835449,0.0000451940010013116
573,0.0595579147338867,0.0000559588264548515
574,0.0596222877502441,0.0000544513794846352
575,0.0591597557067871,0.0000731070832065445
576,0.059330940246582,0.0000835486195942651
577,0.0591130256652832,0.0000705735103320219
578,0.0594172477722168,0.0000746596655061542
579,0.0584630966186523,0.0000785030961122767
580,0.0591278076171875,0.0000642687341411184
581,0.0587077140808106,0.0000589940265041456
582,0.0587100982666016,0.000053473837924485
583,0.0576844215393066,0.0000660552861757151
584,0.0587773323059082,0.0000611561083405879
585,0.0587148666381836,0.0000703847827343179
586,0.0579137802124023,0.0000707601279460079
587,0.0582132339477539,0.0000643217801243486
588,0.0580592155456543,0.000078930594240412
589,0.0577683448791504,0.0000772520346616095
590,0.0579013824462891,0.0000907244567415259
591,0.0576648712158203,0.0000744339596523337
592,0.0578880310058594,0.0000662340372769297
593,0.0578055381774902,0.0000798897932760595
594,0.0572514533996582,0.0000602798366558694
595,0.0574808120727539,0.0000718617486335164
596,0.0571622848510742,0.000075737593598436
597,0.0571908950805664,0.0000829340321108155
598,0.0570478439331055,0.00007281570392203
599,0.0572152137756348,0.000064933946726033
600,0.0567221641540527,0.0000625547836250596
601,0.0569272041320801,0.0000702732442466659
602,0.0566749572753906,0.0000986142591043863
603,0.0568385124206543,0.0000609512795851487
604,0.0565271377563477,0.0000580822108958606
605,0.0563960075378418,0.0000750272622647801
606,0.0564751625061035,0.0000653406114434015
607,0.0563154220581055,0.0000617075922609836
608,0.0562067031860352,0.0000663797744528738
609,0.0562043190002441,0.0000596237152109371
610,0.0559673309326172,0.0000418524784474683
611,0.0557522773742676,0.0000711574618606182
612,0.0556745529174805,0.0000647849571660476
613,0.0555553436279297,0.0000612564099979721
614,0.0554394721984863,0.0000613102079789941
615,0.0553526878356934,0.0000642174147059339
616,0.0551323890686035,0.0000692596739150992
617,0.055077075958252,0.0000634659330702453
618,0.0549135208129883,0.0000711414832688418
619,0.0547499656677246,0.0000651506851320403
620,0.0547122955322266,0.00007375423927683
621,0.0544028282165527,0.0000776732457427313
622,0.0544242858886719,0.0000689355482807205
623,0.0539989471435547,0.0000708612746744535
624,0.053685188293457,0.0000585743551018759
625,0.0535812377929688,0.0000631048536303886
626,0.0536322593688965,0.0000751695630454226
627,0.0535831451416016,0.0000986857095358012
628,0.0538358688354492,0.0000977295176017379
629,0.0548110008239746,0.0000981497217580307
630,0.0551271438598633,0.0000606258646415855
631,0.0544161796569824,0.0000745590973048332
632,0.0540194511413574,0.000077507676257811
633,0.0537276268005371,0.0000739389792488175
634,0.0530877113342285,0.0000784350019855137
635,0.0527372360229492,0.0000725638999497296
636,0.0525188446044922,0.0000580166028342223
637,0.0522708892822266,0.0000642722719020624
638,0.0524358749389648,0.0000758995351832258
639,0.0523252487182617,0.000078479921766056
640,0.0523571968078613,0.0000644912340648526
641,0.0523185729980469,0.0000684190706603449
642,0.0521554946899414,0.0000660604492323656
643,0.0521087646484375,0.0000814107810151381
644,0.0520443916320801,0.0000758980373089732
645,0.0518593788146973,0.0000670002871208455
646,0.0519137382507324,0.000080833392303009
647,0.0517535209655762,0.0000743621394715039
648,0.0516061782836914,0.0000782637811683363
649,0.0514969825744629,0.0000815698220207406
650,0.0515713691711426,0.000081610230370237
651,0.051328182220459,0.000070436450777785
652,0.0513186454772949,0.0000756955521888139
653,0.0511288642883301,0.0000892437398556646
654,0.0512404441833496,0.0000784538424441295
655,0.0508155822753906,0.0000704057774499927
656,0.0549459457397461,0.0000538034194908233
657,0.0480222702026367,0.0000689569842332473
658,0.0495681762695313,0.0000881852280572513
659,0.0507187843322754,0.0000766611204534686
660,0.0506973266601563,0.0000585248412802363
661,0.0506124496459961,0.0000564171108414113
662,0.0506401062011719,0.0000658208022732581
663,0.0504527091979981,0.0000738697559016011
664,0.0503568649291992,0.00008134232573143
665,0.0503644943237305,0.0000771297921966391
666,0.0502715110778809,0.0000605179434316952
667,0.0501484870910645,0.0000569615866051405
668,0.0501484870910645,0.0000762760618231003
669,0.0500645637512207,0.0000798428189532527
670,0.0498185157775879,0.0000744980808067822
671,0.049860954284668,0.000062277926713328
672,0.0497794151306152,0.0000552030405424187
673,0.0496625900268555,0.0000742565754877898
674,0.0496788024902344,0.0000700999277722819
675,0.0495343208312988,0.0000748831729014001
676,0.0495095252990723,0.0000668899034636164
677,0.0493226051330566,0.0000703072094748175
678,0.0494484901428223,0.0000761104403434064
679,0.0493154525756836,0.0000617499517180621
680,0.0492415428161621,0.0000679656059364198
681,0.0492095947265625,0.0000549636274164697
682,0.049163818359375,0.0000541225928862906
683,0.0490713119506836,0.0000657689653380076
684,0.0490107536315918,0.0000655369264546534
685,0.0490026473999023,0.000061258265887267
686,0.0489535331726074,0.0000597465732709502
687,0.0488595962524414,0.0000677662609484023
688,0.0488533973693848,0.0000811772373371732
689,0.0488109588623047,0.0000922849304458843
690,0.0487918853759766,0.0000801540427759197
691,0.0487055778503418,0.0000789104269136111
692,0.0487895011901856,0.0000619503048241598
693,0.0486712455749512,0.0000759294864630243
694,0.0486435890197754,0.0000627543788008198
695,0.0486712455749512,0.000059816936093488
696,0.048583984375,0.0000512594400420253
697,0.0486068725585938,0.0000600511989266631
698,0.0486865043640137,0.0000632721763773698
699,0.0485138893127441,0.0000570573070254476
700,0.0485548973083496,0.0000605601963743459
701,0.048490047454834,0.0000666242365209747
702,0.0484771728515625,0.0000601155320819398
703,0.0485591888427734,0.000070033403122981
704,0.048520565032959,0.0000604653207573519
705,0.0484685897827148,0.0000670325187808809
706,0.0486059188842773,0.0000517747230474291
707,0.0486569404602051,0.0000635232289646161
708,0.0485806465148926,0.0000736431728449554
709,0.0485806465148926,0.0000663437985740196
710,0.0487079620361328,0.0000604944568225786
711,0.0487761497497559,0.0000617959616728236
712,0.0488519668579102,0.0000574524468270012
713,0.0489654541015625,0.0000665251923621952
714,0.0490784645080566,0.0000639050747956365
715,0.0491056442260742,0.0000599109409085424
716,0.0492091178894043,0.0000550308094000843
717,0.0494227409362793,0.0000623818920457765
718,0.049555778503418,0.0000733570226816422
719,0.0497612953186035,0.0000705074325152379
720,0.0498991012573242,0.0000605132468391282
721,0.0500540733337402,0.0000727735367315878
722,0.0502161979675293,0.0000656686312363547
723,0.0504326820373535,0.0000467117916204354
724,0.0507383346557617,0.0000634014132978193
725,0.0508270263671875,0.0000585500888526876
726,0.051060676574707,0.0000571777263657844
727,0.0513615608215332,0.0000608532773571498
728,0.0515799522399902,0.0000636787415693385
729,0.0519247055053711,0.0000614306185165942
730,0.0522489547729492,0.0000555366897409941
731,0.0526890754699707,0.0000664619319071878
732,0.0530414581298828,0.0000639228622747005
733,0.0533885955810547,0.0000799552265881469
734,0.0538711547851563,0.0000658622424466855
735,0.054354190826416,0.0000587061877959282
736,0.0546102523803711,0.0000523870237997905
737,0.0549635887145996,0.0000490261881356322
738,0.0552740097045898,0.0000694890980326261
739,0.0554771423339844,0.0000563425023379392
740,0.0556564331054688,0.0000613250404959594
741,0.0557103157043457,0.0000666822284943136
742,0.055910587310791,0.0000673573627734508
743,0.0560460090637207,0.0000689157553296649
744,0.056117057800293,0.0000663198038128422
745,0.0561399459838867,0.0000657084372283464
746,0.056178092956543,0.0000602430487325065
747,0.056241512298584,0.0000613380160060558
748,0.0562257766723633,0.0000531614625355779
749,0.0562644004821777,0.0000624328993249819
750,0.0562715530395508,0.0000631084566366795
751,0.0562615394592285,0.0000581936725258984
752,0.0561618804931641,0.000068910806203613
753,0.0561594963073731,0.0000553973148939306
754,0.0562167167663574,0.0000627380721380391
755,0.0562224388122559,0.0000734592365825716
756,0.0561642646789551,0.0000564302075539552
757,0.0562682151794434,0.0000644083279433783
758,0.0561947822570801,0.0000628720235683614
759,0.0560307502746582,0.000061500903172215
760,0.0560269355773926,0.0000703007411727223
761,0.0561022758483887,0.0000566232831741945
762,0.0559477806091309,0.0000623891813531216
763,0.0558543205261231,0.0000657153575482421
764,0.0559754371643066,0.0000713887495435002
765,0.0558972358703613,0.0000716875150383101
766,0.0557560920715332,0.0000543939330413334
767,0.0555739402770996,0.0000557379602642454
768,0.0556173324584961,0.000074322379343088
769,0.0556707382202148,0.0000657378435566156
770,0.0555558204650879,0.000060086212274742
771,0.05535888671875,0.0000645986769633066
772,0.055321216583252,0.0000592871794629912
773,0.0552272796630859,0.0000539131837311483
774,0.0551156997680664,0.000064677823717288
775,0.0549654960632324,0.0000545389990937527
776,0.0548968315124512,0.0000655872134315105
777,0.0547928810119629,0.0000511050655314978
778,0.0546832084655762,0.0000564342367001925
779,0.0546970367431641,0.0000583341617466422
780,0.0545468330383301,0.0000530029758309744
781,0.0543551445007324,0.0000490551658243395
782,0.0542483329772949,0.0000548570013260949
783,0.0541195869445801,0.0000582766411459843
784,0.0539684295654297,0.0000649812013328183
785,0.0537385940551758,0.0000687935729605276
786,0.0537047386169434,0.0000634533926969138
787,0.053614616394043,0.0000527384914920719
788,0.0534448623657227,0.0000494119269702106
789,0.0532417297363281,0.0000511550938878638
790,0.053044319152832,0.0000636394524410357
791,0.052945613861084,0.0000427255140787795
792,0.0529203414916992,0.0000573831470709727
793,0.0526795387268066,0.0000687092397223825
794,0.0525979995727539,0.0000705493427003565
795,0.0525145530700684,0.0000717049574492434
796,0.0522046089172363,0.0000747661809294273
797,0.0521125793457031,0.0000616873231078958
798,0.0520563125610352,0.0000577425975922417
799,0.0519447326660156,0.0000510059760657657
800,0.051790714263916,0.0000635500686327142
801,0.0517325401306152,0.0000534291726979726
802,0.0516114234924316,0.0000562829463183575
803,0.0515098571777344,0.0000620071677449072
804,0.0513057708740234,0.0000768403514041278
805,0.0513176918029785,0.0000740849050179872
806,0.0512247085571289,0.0000823424738620184
807,0.0511994361877441,0.0000756294398990892
808,0.0511384010314941,0.0000717382448208911
809,0.0510082244873047,0.0000654466599453296
810,0.0509648323059082,0.0000550401050577477
811,0.0510048866271973,0.0000774768677199932
812,0.0508651733398438,0.0000577189664893113
813,0.0509042739868164,0.0000569466157555398
814,0.0509171485900879,0.0000705557882115573
815,0.0508871078491211,0.0000682693606183284
816,0.0509409904479981,0.0000642864209989651
817,0.0509724617004395,0.0000612768216887065
818,0.0510897636413574,0.0000791377313069334
819,0.0510830879211426,0.0000701680095773548
820,0.0511641502380371,0.000059771304782494
821,0.051304817199707,0.0000674518142500191
822,0.0514469146728516,0.0000576381537863685
823,0.051544189453125,0.000081414970285084
824,0.0516510009765625,0.0000729810136080454
825,0.0520119667053223,0.0000780033304087774
826,0.0522232055664063,0.0000732670806265629
827,0.0525627136230469,0.0000669493634324661
828,0.052976131439209,0.0000664311347688544
829,0.0534276962280273,0.000090267175834761
830,0.0539207458496094,0.0000517022109328833
831,0.0543804168701172,0.0000675006746796425
832,0.0549664497375488,0.0000671223463453688
833,0.0554757118225098,0.0000655924133321594
834,0.0559687614440918,0.0000551082253031027
835,0.0563254356384277,0.0000711766314358207
836,0.056614875793457,0.0000612508419926888
837,0.056943416595459,0.0000609671317949946
838,0.0572381019592285,0.0000599099921023959
839,0.057548999786377,0.0000714190007016202
840,0.0578250885009766,0.0000743697832130538
841,0.0579571723937988,0.000070888543510012
842,0.0581293106079102,0.0000689388465534088
843,0.0582866668701172,0.0000649041761748561
844,0.0584688186645508,0.0000734994636365175
845,0.0585684776306152,0.0000664396909614645
846,0.0587654113769531,0.0000715366990655903
847,0.0588850975036621,0.0000516097754401213
848,0.0590133666992188,0.0000668014652103446
849,0.0590076446533203,0.0000733601221650146
850,0.0591692924499512,0.0000689784135242691
851,0.0592021942138672,0.0000772917586072117
852,0.0594186782836914,0.0000806080487491245
853,0.0595393180847168,0.0000814526640187911
854,0.0597400665283203,0.0000733120654471494
855,0.059593677520752,0.0000598615830477723
856,0.0597796440124512,0.0000682810165050541
857,0.0597701072692871,0.0000788643108007302
858,0.0598368644714356,0.0000738127902938964
859,0.0600252151489258,0.0000607962701816911
860,0.0599918365478516,0.0000812738127892455
861,0.0600686073303223,0.0000689338990851969
862,0.0601825714111328,0.0000780878174111468
863,0.0602498054504395,0.0000759040286286312
864,0.0603556632995606,0.0000773990583075972
865,0.0603375434875488,0.0000855959224718518
866,0.0604639053344727,0.0000736694119642237
867,0.0603947639465332,0.00007322827842885
868,0.0606241226196289,0.000084218136002741
869,0.0606589317321777,0.0000651960389037231
870,0.0606508255004883,0.0000589564362601802
871,0.0608148574829102,0.0000612545540524475
872,0.0608611106872559,0.0000779318820814958
873,0.0610966682434082,0.0000628249920972463
874,0.0611257553100586,0.0000721254623587656
875,0.0613718032836914,0.0000682343810117089
876,0.0614614486694336,0.0000803297261857584
877,0.0615329742431641,0.0000683193004172223
878,0.0616726875305176,0.0000617131190564384
879,0.0619096755981445,0.0000808052587255514
880,0.0619559288024902,0.0000800021349093356
881,0.0621919631958008,0.0000702700086068066
882,0.0623531341552734,0.000059911889699663
883,0.0625076293945313,0.0000719771435594248
884,0.0626292228698731,0.0000665491130690956
885,0.0628156661987305,0.0000824266510051162
886,0.0629730224609375,0.0000645634694846921
887,0.0631885528564453,0.0000720734277606947
888,0.0632128715515137,0.0000843934417451013
889,0.0635356903076172,0.0000758575835241099
890,0.0635838508605957,0.0000970688678741415
891,0.0638008117675781,0.0000859471696322789
892,0.0640592575073242,0.0000976247662218892
893,0.0641856193542481,0.000111277897017505
894,0.0643572807312012,0.0000848462016722503
895,0.0644769668579102,0.000111382056362475
896,0.0646743774414063,0.000109927254832939
897,0.0648846626281738,0.0000923686624203893
898,0.0650949478149414,0.0000714205925128983
899,0.0652236938476563,0.0000760790659911313
900,0.0654201507568359,0.000104519833574042
901,0.0657253265380859,0.0000825465584121033
902,0.0658721923828125,0.0000702845678131385
903,0.0660862922668457,0.0000834655739925461
904,0.0663142204284668,0.0000647375593127332
905,0.0666670799255371,0.0000944883841535771
906,0.0668497085571289,0.000105224467208837
907,0.0672135353088379,0.000074041925208707
908,0.0673031806945801,0.0000515502650986663
909,0.0677356719970703,0.0000725701665329228
910,0.0680837631225586,0.0000827899718941626
911,0.0684223175048828,0.00009228985795906
912,0.0689210891723633,0.0000884606828712863
913,0.0691189765930176,0.0000988422586065535
914,0.0697789192199707,0.0000790414225590208
915,0.0701489448547363,0.0000804541720019411
916,0.0705890655517578,0.000107179162297263
917,0.0712614059448242,0.0000971976142436958
918,0.0718326568603516,0.0000789752321369384
919,0.072542667388916,0.000101991890126264
920,0.0734128952026367,0.000113571360212616
921,0.0741629600524902,0.0000896149441591912
922,0.0752644538879395,0.000109034214787033
923,0.0762758255004883,0.0000761895657821051
924,0.0774126052856445,0.0000720844685414562
925,0.0787210464477539,0.0000765928730373188
926,0.0801181793212891,0.0000924818261901905
927,0.0816340446472168,0.000082396301950145
928,0.0830721855163574,0.0000883140521947314
929,0.0847396850585938,0.0000790989344250061
930,0.0867757797241211,0.000090252061190193
931,0.0886549949645996,0.000106046697201857
932,0.0909085273742676,0.0000794660247406707
933,0.0930404663085938,0.0000756895443668917
934,0.0954875946044922,0.0000742856587976929
935,0.0979762077331543,0.0000825919949932946
936,0.100740432739258,0.000105075263179173
937,0.103367328643799,0.0000686910366263165
938,0.106210231781006,0.0000879244275788583
939,0.109141826629639,0.000101668123252322
940,0.11226749420166,0.0000952553089976491
941,0.115379333496094,0.0000985704413048871
942,0.118666648864746,0.000106905146847468
943,0.122174739837646,0.0000879993899879175
944,0.125453948974609,0.0000996692323644304
945,0.12921667098999,0.000108838016075457
946,0.133095264434814,0.000125316579172563
947,0.137360572814941,0.000105263355217757
948,0.141821384429932,0.000101075981246859
949,0.146435260772705,0.000088398973283817
950,0.151384353637695,0.000115668153829957
951,0.157025814056396,0.000117234078602775
952,0.163102149963379,0.000132536714422994
953,0.169234752655029,0.000147351169033113
954,0.175315380096436,0.000117503357686556
955,0.181916236877441,0.000120768836149818
956,0.188592433929443,0.000168368763016067
957,0.195147037506104,0.000163100614751007
958,0.201212406158447,0.000105148810464515
959,0.20660400390625,0.000113899220480603
960,0.212051868438721,0.000149304102892233
961,0.216902256011963,0.000118466926789961
962,0.220986366271973,0.000135159574502922
963,0.224921226501465,0.000139660385844456
964,0.22823429107666,0.000149890785633729
965,0.231057643890381,0.000167914398577557
966,0.233512878417969,0.000157017777259967
967,0.235686302185059,0.000124956812699579
968,0.237631320953369,0.000167371880282525
969,0.239106178283691,0.000159668550395489
970,0.240526676177979,0.000146344734231707
971,0.241914749145508,0.000163178663996878
972,0.242583751678467,0.000134417341684103
973,0.243652820587158,0.000149972677427739
974,0.244348049163818,0.000152992665330166
975,0.244744300842285,0.000219340946324174
976,0.245408535003662,0.00022315571447058
977,0.245173931121826,0.000218214354720361
978,0.245294570922852,0.000214001626659879
979,0.245217800140381,0.000228595554604777
980,0.245072364807129,0.000253684538546306
981,0.244640827178955,0.000244297037088745
982,0.243927001953125,0.000215048800498282
983,0.243138790130615,0.000196988580749859
984,0.241895198822021,0.000188195490584768
985,0.240991592407227,0.000185170057668186
986,0.239652156829834,0.000215374206393948
987,0.238383293151855,0.00020828998118962
988,0.236609935760498,0.000177516682109115
989,0.235569477081299,0.000194797171302281
990,0.233100891113281,0.000259231063965332
991,0.23142671585083,0.000325140010080701
992,0.229595184326172,0.0002763944951878
993,0.227688312530518,0.000203546362395804
994,0.225293636322021,0.000136131789246029
995,0.222923755645752,0.000196729859297579
996,0.220770359039307,0.000217291297450772
997,0.218310356140137,0.000310224259790888
998,0.215908527374268,0.000272163345238102
999,0.213967323303223,0.000176045282406585
1000,0.210564136505127,0.000226461006011127
1001,0.209040641784668,0.000176684736589367
1002,0.206192493438721,0.000235157600041329
1003,0.203386306762695,0.000280016708839397
1004,0.200978755950928,0.000329077065671096
1005,0.198247909545898,0.000312834249866561
1006,0.195670604705811,0.000207857249844746
1007,0.192724227905273,0.000282525915636777
1008,0.190262794494629,0.000376796710343338
1009,0.187046051025391,0.000306940934329806
1010,0.184544086456299,0.000298790896658567
1011,0.182289600372314,0.000245581784063815
1012,0.179041385650635,0.000268956447404058
1013,0.176151752471924,0.00030593776940557
1014,0.173576354980469,0.000274048233881558
1015,0.171088695526123,0.000377953536614308
1016,0.168223857879639,0.00030298639774444
1017,0.165334224700928,0.00021897575132163
1018,0.163230895996094,0.000311172691490679
1019,0.160079956054687,0.000423534483861796
1020,0.157285213470459,0.000395929926625384
1021,0.155511379241943,0.000342813750284744
1022,0.152005195617676,0.000390666721023319
1023,0.150343894958496,0.000316815143715796
1024,0.147413730621338,0.000368567671746729
1025,0.145112037658691,0.000373567754282992
1026,0.142255306243896,0.000443818346321075
1027,0.140781402587891,0.000439874460311098
1028,0.137805938720703,0.000318441550788955
1029,0.13614559173584,0.000477919304301936
1030,0.13349437713623,0.000465502491578306
1031,0.131538391113281,0.000322528085614231
1032,0.128976345062256,0.000481468596678832
1033,0.126439094543457,0.000584495777415345
1034,0.125292778015137,0.000590711753108916
1035,0.123051643371582,0.000445977104055038
1036,0.121388912200928,0.000480015651542698
1037,0.119409561157227,0.000592617855047758
1038,0.118268013000488,0.00044795494755786
1039,0.116864204406738,0.000407101661180435
1040,0.114433288574219,0.000586136645012503
1041,0.112978458404541,0.000731049682769236
1042,0.111536979675293,0.000891219746748645
1043,0.110404014587402,0.00067885536262679
1044,0.109023094177246,0.000446938631514207
1045,0.106107711791992,0.000476844787536622
1046,0.106944561004639,0.000628997194929229
1047,0.104408264160156,0.000692385943880519
1048,0.102889537811279,0.000918304681183679
1049,0.102644920349121,0.000616235977365377
1050,0.102259635925293,0.000616896820426439
1051,0.100703716278076,0.000431727004254467
1052,0.100733280181885,0.000665224580194265
1053,0.0995421409606934,0.00058627317667963
1054,0.0980038642883301,0.00051287466272761
1055,0.0963478088378906,0.000831428999378984
1056,0.0967178344726563,0.00128776405425244
1057,0.0960254669189453,0.000893339876505071
1058,0.0953397750854492,0.000938632598829938
1059,0.0941424369812012,0.00112822210971763
1060,0.0949087142944336,0.00124384871551164
1061,0.0943417549133301,0.00098481269596822
1062,0.0925750732421875,0.000929111788310308
1063,0.0923571586608887,0.0010268836278315
1064,0.0918025970458984,0.00132510086375176
1065,0.0893998146057129,0.00143967301489149
1066,0.0921854972839356,0.0011511034675624
1067,0.0907974243164063,0.00121750412435538
1068,0.0949139595031738,0.00141356025122296
1069,0.0914878845214844,0.00163379524854548
1070,0.0934348106384277,0.00184971519658936
1071,0.0932941436767578,0.00210935857554505
1072,0.0932674407958984,0.00137629709781212
1073,0.0889630317687988,0.00144116819168144
1074,0.0933380126953125,0.0016870452833356
1075,0.0927190780639648,0.00140314501130037
1076,0.0917024612426758,0.00180596003729413
1077,0.0921382904052734,0.00173309887728795
1078,0.0944395065307617,0.00183321507480709
1079,0.0933012962341309,0.00206828368843651
1080,0.0952186584472656,0.00140716317779934
1081,0.0944466590881348,0.0017777635267261
1082,0.0937433242797852,0.00209284735908202
1083,0.0962696075439453,0.00298604794492128
1084,0.0950684547424316,0.00209829156017334
1085,0.0971126556396484,0.00166925154722938
1086,0.0983247756958008,0.00228647748132449
1087,0.0995936393737793,0.00266775828825773
1088,0.099215030670166,0.00281490540957036
1089,0.0988435745239258,0.0018952251422056
1090,0.100118160247803,0.00190676871066656
1091,0.102123260498047,0.00188299268635939
1092,0.100090503692627,0.00190948366833016
1093,0.104804515838623,0.00201068925903676
1094,0.102086544036865,0.00289941084011332
1095,0.106213092803955,0.00229836064254916
1096,0.109498023986816,0.00278153955366773
1097,0.105963230133057,0.00313084175547534
1098,0.111218929290771,0.00263796176574393
1099,0.111447334289551,0.00284182401034584
1100,0.10979175567627,0.00282423656769299
