Wavelength (nm),Absorbance (AU),Std.Dev.
200,1.41925525665283,1.09486550258468
201,1.97529125213623,1.2464794171987
202,2.07268524169922,0.669611466898203
203,2.11948156356812,0.334309737351877
204,1.99503374099731,0.142223177615242
205,2.64916324615479,0.0989826908585517
206,2.26935434341431,0.109701486766272
207,3.15227079391479,0.178238039789841
208,3.05424499511719,0.263179517158827
209,3.11220216751099,0.307863554617494
210,3.1465892791748,0.523247983415548
211,3.14848375320435,1.03435257717388
212,3.85909032821655,0.501842917133003
213,2.79790496826172,0.380844350665195
214,3.47703075408936,0.49577068713141
215,3.08837127685547,0.284694349790674
216,2.71232318878174,0.553861621086441
217,3.48881530761719,0.884021572488477
218,3.73065423965454,0.45961973975862
219,3.032958984375,0.220093010401373
220,3.42654466629028,0.4296875
221,3.28739881515503,0.68289026302044
222,3.40116786956787,0.483405342438058
223,2.9814190864563,0.245107460588877
224,3.07496166229248,0.387762952616512
225,3.73946666717529,0.396806557828796
226,3.47635316848755,0.365291815336126
227,3.35871028900146,0.670874982532141
228,3.25285339355469,0.3767962351617
229,3.20510530471802,0.176649872083534
230,3.05141353607178,0.0989055827571786
231,2.67590045928955,0.0385912121390079
232,2.6164436340332,0.0235744291104947
233,2.460853099823,0.0218492219808234
234,2.3098464012146,0.0234813280394179
235,2.21309375762939,0.0163328070977484
236,2.08302402496338,0.0111759354475064
237,1.99336242675781,0.00717922376893002
238,1.89167308807373,0.0109900574182637
239,1.8428807258606,0.00741872218575924
240,1.76147699356079,0.00450824273368611
241,1.7056941986084,0.0045881024567934
242,1.66402339935303,0.00348040903727367
243,1.62225389480591,0.00251353526244367
244,1.59723711013794,0.00351263820081049
245,1.57767629623413,0.00283846289265837
246,1.56219244003296,0.00279781454704258
247,1.54826593399048,0.00375130432015851
248,1.54046773910522,0.00390660761149925
249,1.53863143920898,0.00230937626287609
250,1.54279613494873,0.00207210759846612
251,1.54658460617065,0.00201462249073474
252,1.55243635177612,0.00344524399912028
253,1.54218053817749,0.00466769325369122
254,1.54360961914063,0.00527592353148787
255,1.55248737335205,0.00637926886252633
256,1.5539379119873,0.00638977164467891
257,1.53378868103027,0.00641595338184468
258,1.53903675079346,0.00407018008904522
259,1.54078960418701,0.00391743964656941
260,1.51892471313477,0.00606140871156043
261,1.50223445892334,0.00435707233827509
262,1.48709869384766,0.00293095878992748
263,1.47251415252686,0.00421794442150196
264,1.43702363967896,0.00538780041651413
265,1.41514921188354,0.00462117156529953
266,1.38587808609009,0.00401071109764323
267,1.34858894348145,0.00287708099350407
268,1.32313871383667,0.00333808462205303
269,1.28932952880859,0.00326038584628585
270,1.26130819320679,0.00335131087614613
271,1.22657299041748,0.00278931331842404
272,1.21227788925171,0.00261727155009573
273,1.19046306610107,0.00220620139733075
274,1.16410636901855,0.00195366136815413
275,1.14926862716675,0.00222637184062933
276,1.1294641494751,0.00222176562132591
277,1.12220335006714,0.0013967835832718
278,1.11112880706787,0.00185021862320182
279,1.10714912414551,0.00242931231518194
280,1.09567546844482,0.00128683710908849
281,1.08477258682251,0.00201687485364778
282,1.07098960876465,0.00191754476868305
283,1.05270290374756,0.00154765798760229
284,1.02863168716431,0.00116876746460417
285,1.01126527786255,0.000755560477002888
286,0.986277103424072,0.000686571329136666
287,0.963133335113525,0.00099495612423631
288,0.949852466583252,0.00125454252356755
289,0.933190822601318,0.000795892498953728
290,0.922821044921875,0.000608775966210926
291,0.914361000061035,0.0010568295026198
292,0.910319805145264,0.00106470380683539
293,0.904966354370117,0.00150126634231553
294,0.908389568328857,0.00133381368569948
295,0.904143333435059,0.000888439635437926
296,0.905001640319824,0.000835253207044645
297,0.908366680145264,0.000711213451319667
298,0.912555694580078,0.00110494601119692
299,0.913315296173096,0.00128887099230662
300,0.909945487976074,0.00133383550553287
301,0.920638084411621,0.00147927644623339
302,0.91569995880127,0.00103818652328697
303,0.919193744659424,0.0008466050039174
304,0.91863489151001,0.00123020290348794
305,0.922849655151367,0.00152904182684789
306,0.918302536010742,0.00131292104495717
307,0.91983699798584,0.00134212304749906
308,0.915854930877686,0.00118883986080544
309,0.909138679504395,0.0012515463056481
310,0.911045551300049,0.000721108964561155
311,0.90740966796875,0.00052504426678727
312,0.901360988616943,0.000783379454039156
313,0.895938873291016,0.000931426906463827
314,0.887094020843506,0.00126346551221307
315,0.879300117492676,0.000959000022123454
316,0.8721604347229,0.000788803392065798
317,0.860759258270264,0.0012490323165566
318,0.852524280548096,0.000991557159466552
319,0.84143590927124,0.000629910368649286
320,0.832306861877441,0.000603204847767394
321,0.818233489990234,0.000535418275742271
322,0.806166172027588,0.000663855972851861
323,0.795249938964844,0.000798666796680714
324,0.782005310058594,0.000912263137428177
325,0.766941547393799,0.000653861812166316
326,0.752759456634522,0.000733652670183128
327,0.739821910858154,0.000909115271739687
328,0.723966598510742,0.000658419400206492
329,0.709792613983154,0.00074651198623032
330,0.69336462020874,0.000668650165240646
331,0.67705774307251,0.000614770154050393
332,0.663614749908447,0.000724993226208777
333,0.648499488830566,0.000744931362823812
334,0.632102489471436,0.000773866603044872
335,0.6173095703125,0.000771531363154846
336,0.600516319274902,0.000562147125848042
337,0.585612773895264,0.000397882251136442
338,0.571218490600586,0.000470268786634947
339,0.555051803588867,0.00035306048468526
340,0.540353298187256,0.000398220411582741
341,0.526006698608398,0.000381355268473242
342,0.510146141052246,0.000413855098117539
343,0.494556427001953,0.000436595393443835
344,0.481537818908691,0.000346150935273
345,0.466094017028809,0.00035108688090255
346,0.451803207397461,0.000356526267643472
347,0.437074661254883,0.000449074289168643
348,0.422597408294678,0.000322020104834065
349,0.409306526184082,0.000345509242388547
350,0.395555019378662,0.000461231448107666
351,0.382030963897705,0.000328795039852394
352,0.368654251098633,0.000295392826060645
353,0.356491565704346,0.000318384424054952
354,0.3435378074646,0.000258451018332316
355,0.330905914306641,0.000407423240635559
356,0.318371772766113,0.000209452587557946
357,0.306588172912598,0.000343508140526567
358,0.293839454650879,0.000411262581204889
359,0.28307580947876,0.000330378991688595
360,0.272261142730713,0.000386547623928632
361,0.259783267974854,0.000390284732795084
362,0.250507354736328,0.000363938913017824
363,0.240979671478271,0.000420655784670722
364,0.231204509735107,0.00044471910220805
365,0.222251892089844,0.00044471910220805
366,0.213675022125244,0.000350931415774747
367,0.207070350646973,0.000215943539725785
368,0.199446678161621,0.00019446539460716
369,0.192103385925293,0.000171154651848567
370,0.183924198150635,0.000248351147964798
371,0.176365852355957,0.000313182928362961
372,0.169263362884521,0.00022148251902763
373,0.161967277526855,0.000222236811273644
374,0.155303955078125,0.000192915844856114
375,0.148417472839355,0.000272657471790008
376,0.14177417755127,0.000243147678570139
377,0.135632514953613,0.000232262284370406
378,0.129886150360107,0.00017274935645198
379,0.12394380569458,0.000244564939366612
380,0.118026256561279,0.00022125244140625
381,0.112670421600342,0.000202471144086541
382,0.107624053955078,0.000224856908857523
383,0.102446556091309,0.000265251786288337
384,0.0976524353027344,0.000271681710862332
385,0.0932765007019043,0.000251039253654184
386,0.0886373519897461,0.000201408248809417
387,0.0840349197387695,0.000194969845246134
388,0.0802960395812988,0.000250676700023945
389,0.0759916305541992,0.000341474005928568
390,0.0723733901977539,0.000284540363308663
391,0.0686955451965332,0.000176993320517659
392,0.0654749870300293,0.000172491187235173
393,0.0622353553771973,0.000250560572065881
394,0.0585193634033203,0.000230726123107404
395,0.0561366081237793,0.000171817602488358
396,0.0527024269104004,0.000192368189744918
397,0.0501894950866699,0.000233040227497883
398,0.047520637512207,0.000211818773077039
399,0.0449776649475098,0.000168371463895347
400,0.0424165725708008,0.000235408859579303
401,0.0401535034179688,0.000200874692131333
402,0.0376577377319336,0.000241360631914071
403,0.0353121757507324,0.000174431177698001
404,0.0337057113647461,0.000129608514927631
405,0.0319757461547852,0.000190319562822135
406,0.0294756889343262,0.000202214939585855
407,0.027824878692627,0.000266367228980424
408,0.0265779495239258,0.000303532227761069
409,0.0244007110595703,0.000168168777576663
410,0.0229992866516113,0.000204829174173957
411,0.0216512680053711,0.000265786140489129
412,0.0202884674072266,0.000166456469052759
413,0.0187149047851562,0.000234979623254091
414,0.0175423622131348,0.000255890563618207
415,0.0163559913635254,0.00020315277644436
416,0.0153408050537109,0.000178512955722322
417,0.0142145156860352,0.000149760272922162
418,0.0131936073303223,0.000140692013594895
419,0.0124869346618652,0.000132406268248051
420,0.0115170478820801,0.000131146690027724
421,0.0103931427001953,0.000161041117175258
422,0.00983953475952148,0.000176256971559027
423,0.00891542434692383,0.00018028733081379
424,0.00786399841308594,0.000161255582906111
425,0.00711965560913086,0.000196868502359701
426,0.00629615783691406,0.000199233498097528
427,0.00661039352416992,0.000162882994647747
428,0.005462646484375,0.000155983339693152
429,0.00483942031860352,0.000159006425073283
430,0.00463724136352539,0.00015088562348607
431,0.00408744812011719,0.000134369969932259
432,0.00318050384521484,0.000221416806960014
433,0.00341510772705078,0.000177511558602883
434,0.00308656692504883,0.000160863119622999
435,0.00186824798583984,0.000189582202816252
436,0.00200986862182617,0.000159699876102383
437,0.00129556655883789,0.000177920972878153
438,0.00120258331298828,0.000156309518803008
439,0.000982284545898438,0.000144556391307803
440,0.000174999237060547,0.000127271758998514
441,0.000522136688232422,0.000121781260276203
442,-0.000049591064453125,0.000111477960176105
443,-0.000188350677490234,0.000156041635968945
444,-0.000517368316650391,0.00015710463779505
445,-0.000820159912109375,0.000152179051091943
446,-0.000811576843261719,0.000174972599715156
447,-0.00120162963867187,0.000138886547692359
448,-0.00148534774780273,0.00012171589541707
449,-0.00186014175415039,0.000095190838391957
450,-0.00191736221313477,0.000109444256232794
451,-0.00225210189819336,0.000124716391824494
452,-0.00235557556152344,0.000100920644160668
453,-0.00246667861938477,0.0000999835537202851
454,-0.00270795822143555,0.000108950769158319
455,-0.002532958984375,0.000130458324204616
456,-0.00287628173828125,0.000155773292458309
457,-0.00316858291625977,0.000124592357590104
458,-0.00304174423217773,0.000113691418768511
459,-0.00329017639160156,0.000104635066875032
460,-0.00362873077392578,0.000085699457935811
461,-0.0033879280090332,0.0000921345146999626
462,-0.00387096405029297,0.000110993515499173
463,-0.00367116928100586,0.00011180992542355
464,-0.00385618209838867,0.000102352404575425
465,-0.00399875640869141,0.000125906682316318
466,-0.00418376922607422,0.000106943423709897
467,-0.00431060791015625,0.0000778691285216427
468,-0.00412797927856445,0.0000862231817202738
469,-0.00445175170898438,0.0000982446564580751
470,-0.00467538833618164,0.0000753463066677234
471,-0.00450897216796875,0.0000953483562465667
472,-0.00441551208496094,0.000134407191999966
473,-0.0046534538269043,0.000106909400508937
474,-0.00479698181152344,0.000121493391846733
475,-0.00466299057006836,0.000110543976828324
476,-0.00486040115356445,0.000120236737447552
477,-0.00492191314697266,0.0000942643264248014
478,-0.00480747222900391,0.000109695349271547
479,-0.00521230697631836,0.000118794673870758
480,-0.0048985481262207,0.00010918009117411
481,-0.00522136688232422,0.000089213161221957
482,-0.00531339645385742,0.0000852752302138519
483,-0.00515031814575195,0.0000739128358262253
484,-0.00524377822875977,0.0000773167595096821
485,-0.00435352325439453,0.0000638445602982026
486,-0.00469446182250977,0.0000624492856740757
487,-0.00575399398803711,0.0000852698973455678
488,-0.00553083419799805,0.0000808741686065459
489,-0.00532627105712891,0.0000789709134432227
490,-0.0052790641784668,0.000106143137405167
491,-0.00536537170410156,0.0000929991390632712
492,-0.0055079460144043,0.0000846033291481662
493,-0.00556135177612305,0.0000751060151657052
494,-0.00564241409301758,0.0000854523585798508
495,-0.00542402267456055,0.0000865955184528495
496,-0.0052790641784668,0.000102412366933127
497,-0.00541257858276367,0.00010488249814885
498,-0.00549554824829102,0.0000879063236269933
499,-0.00522947311401367,0.000098205304427002
500,-0.00530195236206055,0.000105943730888523
501,-0.00517988204956055,0.0000894829109629814
502,-0.00532722473144531,0.0000925260699899686
503,-0.0053095817565918,0.0000711270994671645
504,-0.00524282455444336,0.0000835690280022382
505,-0.00513315200805664,0.0000820963488072904
506,-0.00516128540039063,0.0000641695976477719
507,-0.00511932373046875,0.0000823604204669812
508,-0.0050048828125,0.0000881517029441173
509,-0.00507116317749023,0.0000911445259244565
510,-0.00507259368896484,0.0000897746473107013
511,-0.00488805770874023,0.0000911195760113329
512,-0.00482463836669922,0.0000981613040761648
513,-0.00474882125854492,0.0000685651377411602
514,-0.00483417510986328,0.000058206369504908
515,-0.00478839874267578,0.0000882573927404058
516,-0.00469303131103516,0.0000995231231908348
517,-0.00468254089355469,0.0000942715624055005
518,-0.00456523895263672,0.0000651820872581742
519,-0.00437688827514648,0.0000999835537202851
520,-0.00453424453735352,0.0000679906919764489
521,-0.00445270538330078,0.0000886532484761318
522,-0.00426816940307617,0.0000889042389639416
523,-0.00422525405883789,0.000099660106816676
524,-0.00418376922607422,0.000104184281531856
525,-0.00416660308837891,0.000085960396140049
526,-0.00411558151245117,0.0000857007845014693
527,-0.00402307510375977,0.0000732484581369052
528,-0.00393486022949219,0.0000767900312471924
529,-0.00384140014648437,0.00011126768006876
530,-0.00388574600219727,0.0000784857159941097
531,-0.00377988815307617,0.0000782318171967485
532,-0.00374555587768555,0.0000940687445483339
533,-0.00368547439575195,0.0000761238825359441
534,-0.00359344482421875,0.0000863351830274311
535,-0.00367307662963867,0.0000800731557628629
536,-0.00363874435424805,0.000084866298041919
537,-0.00364828109741211,0.0000803905590049166
538,-0.00340509414672852,0.0000801469506902586
539,-0.0034184455871582,0.0000757781114393782
540,-0.00349330902099609,0.0000908722022664099
541,-0.00339794158935547,0.0000678735444643591
542,-0.0033721923828125,0.0000862798593764003
543,-0.00354433059692383,0.000086964953818149
544,-0.00334787368774414,0.0000829038687957204
545,-0.00338268280029297,0.0000933797646883304
546,-0.00336217880249023,0.0000817897359404915
547,-0.00336456298828125,0.0000671832927983111
548,-0.00324153900146484,0.0000892997734887667
549,-0.00322341918945312,0.0000856583242105115
550,-0.00327539443969727,0.0000595712568230707
551,-0.00310325622558594,0.0000633098977310286
552,-0.00309085845947266,0.0000721380711543444
553,-0.00325822830200195,0.000077346161990023
554,-0.00309467315673828,0.000107600499783084
555,-0.00307703018188477,0.0000944956029771048
556,-0.0031123161315918,0.0000723835036678828
557,-0.00298881530761719,0.0000650126853222834
558,-0.00305938720703125,0.0000588261307023356
559,-0.00321626663208008,0.0000641430172126732
560,-0.00307178497314453,0.0000776190716140004
561,-0.00303554534912109,0.0000554424450968484
562,-0.00314903259277344,0.0000692728043335147
563,-0.0030980110168457,0.0000673472351157907
564,-0.00299882888793945,0.0000784538424441295
565,-0.00305461883544922,0.0000923021755911415
566,-0.00306844711303711,0.0000938000626063294
567,-0.00284385681152344,0.0000674619262078376
568,-0.00288677215576172,0.0000748209012448247
569,-0.00287914276123047,0.0000869440349522938
570,-0.00283622741699219,0.0000581281902687857
571,-0.00276327133178711,0.0000535312098836842
572,-0.00284814834594727,0.0000606699163087668
573,-0.00289249420166016,0.0000769379377582289
574,-0.00264167785644531,0.0000714667396169807
575,-0.00298357009887695,0.0000512527859964281
576,-0.00274467468261719,0.0000554270639286552
577,-0.00277233123779297,0.0000567416182733288
578,-0.00250911712646484,0.0000634713067574884
579,-0.00304031372070312,0.0000705686774678233
580,-0.00264072418212891,0.0000514266167068956
581,-0.00275087356567383,0.0000587090925329625
582,-0.00237464904785156,0.0000624711274534695
583,-0.00346708297729492,0.0000709574708470851
584,-0.00268173217773437,0.0000633511858235384
585,-0.00249671936035156,0.000059646591685194
586,-0.00298547744750977,0.0000652518156555813
587,-0.00276756286621094,0.0000516769176526693
588,-0.00276613235473633,0.0000436182212988018
589,-0.00291728973388672,0.0000392624079252184
590,-0.00278663635253906,0.000051232818674329
591,-0.00284767150878906,0.0000376384336131176
592,-0.0027318000793457,0.0000500372384044438
593,-0.00251150131225586,0.0000454398541667993
594,-0.00287866592407227,0.0000443650788512129
595,-0.00274896621704102,0.0000442496147562823
596,-0.00282764434814453,0.0000678048355020654
597,-0.00287580490112305,0.0000665627781848596
598,-0.00276994705200195,0.0000852125479332687
599,-0.00259733200073242,0.000061415811497755
600,-0.00293588638305664,0.0000615286250141332
601,-0.0027155876159668,0.0000687968780398233
602,-0.00278854370117187,0.000063598351491683
603,-0.00269985198974609,0.0000638979584175748
604,-0.00283336639404297,0.0000515513677663406
605,-0.00279617309570312,0.0000460376336885823
606,-0.00275516510009766,0.000056494639411157
607,-0.00272846221923828,0.0000668814048670832
608,-0.00268983840942383,0.0000534515099766315
609,-0.0028233528137207,0.0000537970801055148
610,-0.002655029296875,0.0000611895604946114
611,-0.00275611877441406,0.0000603947721368359
612,-0.00269174575805664,0.0000647217523147409
613,-0.00276517868041992,0.000064183769378874
614,-0.00268411636352539,0.0000557440789272272
615,-0.00273466110229492,0.0000615544874691198
616,-0.00285577774047852,0.0000731847955434787
617,-0.00287961959838867,0.0000589024185716366
618,-0.00287294387817383,0.0000654431856700812
619,-0.00286197662353516,0.0000708195490872881
620,-0.00283575057983398,0.0000717128844153896
621,-0.00301361083984375,0.0000412670811380081
622,-0.00274562835693359,0.0000462618062780672
623,-0.00282764434814453,0.0000526705440837939
624,-0.00298595428466797,0.0000647656511167513
625,-0.00306463241577148,0.0000587119971262869
626,-0.00294160842895508,0.0000785899390490917
627,-0.00273847579956055,0.0000627670588318816
628,-0.00272464752197266,0.0000700934403419989
629,-0.00251865386962891,0.0000590739466321891
630,-0.00243711471557617,0.0000577219209062502
631,-0.00270366668701172,0.0000640685333278097
632,-0.00281524658203125,0.0000625929373137444
633,-0.00276565551757812,0.0000735906665393574
634,-0.00298452377319336,0.0000530490714429657
635,-0.00290822982788086,0.0000533716910538987
636,-0.00277900695800781,0.0000494234296188219
637,-0.00289630889892578,0.0000503983266426212
638,-0.0028386116027832,0.000067450128776331
639,-0.00285863876342773,0.0000588348267180908
640,-0.00291013717651367,0.0000683359389066478
641,-0.00290822982788086,0.0000633134890687931
642,-0.00289201736450195,0.0000860899083792496
643,-0.00277328491210937,0.0000659260783461096
644,-0.00285100936889648,0.0000585578551465077
645,-0.00277519226074219,0.0000828078215147398
646,-0.00291299819946289,0.0000964060493818596
647,-0.00274801254272461,0.0000792683513192606
648,-0.00283288955688477,0.0000664516677802973
649,-0.00280046463012695,0.0000800461752614719
650,-0.00283718109130859,0.0000725200187051959
651,-0.00282001495361328,0.000062151841260779
652,-0.00274562835693359,0.0000442958365113175
653,-0.00281429290771484,0.0000524824228129696
654,-0.00280523300170898,0.0000756504818947385
655,-0.00289487838745117,0.0000709398446473141
656,-0.0000123977661132812,0.0000415177050610356
657,-0.00494527816772461,0.000040136548064268
658,-0.00323629379272461,0.0000713122684042748
659,-0.00293731689453125,0.0000544190080377287
660,-0.00283670425415039,0.0000690064264022389
661,-0.00281810760498047,0.0000891978679740137
662,-0.00286483764648437,0.0000785277113616327
663,-0.00283050537109375,0.0000537315293281369
664,-0.00278472900390625,0.0000575305562861112
665,-0.00282716751098633,0.000078711358192304
666,-0.0028071403503418,0.0000695054564918637
667,-0.00288534164428711,0.0000601334952203133
668,-0.00283908843994141,0.0000824280302421128
669,-0.00287008285522461,0.0000650126853222834
670,-0.00279664993286133,0.0000403357451230797
671,-0.00278806686401367,0.0000597627450328571
672,-0.00279855728149414,0.0000577386597467301
673,-0.00282144546508789,0.0000711382871198064
674,-0.00286626815795898,0.0000552050999347285
675,-0.00279617309570312,0.0000427979612359259
676,-0.00278186798095703,0.0000474387073253413
677,-0.00276041030883789,0.000048297272556244
678,-0.00280332565307617,0.0000413083840253113
679,-0.00280523300170898,0.0000449948353274744
680,-0.00271368026733398,0.0000522163904255888
681,-0.00274562835693359,0.000063710869198376
682,-0.00275468826293945,0.0000512572221228048
683,-0.00280904769897461,0.0000453584689142842
684,-0.00272130966186523,0.0000489844301482872
685,-0.00262546539306641,0.0000423661161064933
686,-0.00273799896240234,0.0000665012630509441
687,-0.00268745422363281,0.0000665883927183895
688,-0.0027008056640625,0.0000441596006258988
689,-0.00269889831542969,0.0000423023364503321
690,-0.0026402473449707,0.0000510861531800685
691,-0.00260210037231445,0.0000574999183879424
692,-0.00276851654052734,0.0000551463771163005
693,-0.00265169143676758,0.0000486408961659276
694,-0.0027012825012207,0.0000609829798841407
695,-0.00272989273071289,0.0000661258130569961
696,-0.00266361236572266,0.000049548635305105
697,-0.00271987915039062,0.0000483643121125717
698,-0.0026249885559082,0.0000405290546993237
699,-0.0027165412902832,0.0000459869824547937
700,-0.00274515151977539,0.0000610444687653118
701,-0.0027461051940918,0.0000643553532986843
702,-0.00277471542358398,0.0000568617064886621
703,-0.00278139114379883,0.0000681960494274842
704,-0.00286006927490234,0.0000653266906738281
705,-0.00278282165527344,0.0000548891144623462
706,-0.00285005569458008,0.0000611616849701842
707,-0.00284337997436523,0.0000476479396123345
708,-0.00281572341918945,0.0000517692332611695
709,-0.00298309326171875,0.0000386767554319261
710,-0.00291967391967773,0.000058796167914575
711,-0.00288534164428711,0.0000503960708260168
712,-0.0028681755065918,0.000050685120814647
713,-0.00290441513061523,0.0000584480605896966
714,-0.00289249420166016,0.0000512538950640181
715,-0.00289106369018555,0.0000432596698523639
716,-0.00287723541259766,0.0000447732063799909
717,-0.0028386116027832,0.0000670189494449563
718,-0.00284624099731445,0.0000639566448559002
719,-0.00275897979736328,0.0000461978679653931
720,-0.00274419784545898,0.0000612879524729142
721,-0.0027313232421875,0.0000503294787502844
722,-0.0027623176574707,0.0000498380379884869
723,-0.00269794464111328,0.0000505076128087177
724,-0.00264215469360352,0.0000619190997618972
725,-0.00259113311767578,0.0000422915851494754
726,-0.00267744064331055,0.0000627634362272653
727,-0.00257730484008789,0.0000628050835648611
728,-0.00259685516357422,0.0000612564099979721
729,-0.00260257720947266,0.0000551474078800713
730,-0.0026702880859375,0.0000579921031993223
731,-0.00264930725097656,0.0000453847785699153
732,-0.00264835357666016,0.0000475464275008579
733,-0.00264787673950195,0.0000566704462555037
734,-0.00271272659301758,0.0000448581879668874
735,-0.00262069702148437,0.000035224680933881
736,-0.00266695022583008,0.0000349297458111047
737,-0.00265407562255859,0.0000456582472648839
738,-0.00275754928588867,0.0000433095732554472
739,-0.00269842147827148,0.0000488263554550438
740,-0.00272560119628906,0.0000501926321675902
741,-0.00283527374267578,0.000053923726210322
742,-0.00283241271972656,0.0000530694265173235
743,-0.00283479690551758,0.0000497387100321278
744,-0.00283384323120117,0.0000608710227860754
745,-0.0028691291809082,0.0000458185676922289
746,-0.00284767150878906,0.0000361838978914792
747,-0.00281667709350586,0.0000590287039441814
748,-0.00287008285522461,0.0000602864372402479
749,-0.0027618408203125,0.0000532736165177701
750,-0.00275802612304687,0.000042798625321039
751,-0.00276517868041992,0.0000395875366497143
752,-0.0027766227722168,0.0000446193220721801
753,-0.00274038314819336,0.0000538509410930114
754,-0.00274801254272461,0.0000529986858288766
755,-0.00277280807495117,0.0000475655522147896
756,-0.00266647338867187,0.000043238640662398
757,-0.00270462036132812,0.0000478716959673703
758,-0.00263881683349609,0.0000586974727223523
759,-0.00261878967285156,0.0000522250985999959
760,-0.00263738632202148,0.0000574722314092974
761,-0.00268936157226562,0.0000519347689409064
762,-0.00263309478759766,0.0000485578522419013
763,-0.00255918502807617,0.0000455248399411251
764,-0.00257062911987305,0.000054014306590475
765,-0.00249814987182617,0.0000548487110130166
766,-0.00260591506958008,0.0000466460329197887
767,-0.00267982482910156,0.000036866328064535
768,-0.00255107879638672,0.0000556757156875202
769,-0.00254678726196289,0.0000523088406513073
770,-0.00269412994384766,0.0000534876553165725
771,-0.00263833999633789,0.0000527934324853304
772,-0.0026860237121582,0.0000564503504093367
773,-0.00266790390014648,0.0000380723939482482
774,-0.00271081924438477,0.0000573970137158458
775,-0.00274181365966797,0.0000503227017383705
776,-0.00272130966186523,0.0000522131244857493
777,-0.00270414352416992,0.0000442534684131375
778,-0.00273513793945312,0.0000559324092134733
779,-0.00269746780395508,0.0000503159238136663
780,-0.002777099609375,0.0000417212077049031
781,-0.0027618408203125,0.0000455073558442694
782,-0.0027613639831543,0.0000375469523552432
783,-0.00287246704101562,0.0000431353176593245
784,-0.00272178649902344,0.000041791315419574
785,-0.00281667709350586,0.0000566283023903562
786,-0.00282478332519531,0.0000561585840743457
787,-0.00282621383666992,0.0000594203005640348
788,-0.00281333923339844,0.0000514862699673896
789,-0.00282096862792969,0.0000392472032671141
790,-0.00289583206176758,0.0000441351365413337
791,-0.00280284881591797,0.0000629569528354607
792,-0.00283956527709961,0.0000557573337269216
793,-0.00282430648803711,0.0000517824077704198
794,-0.00282382965087891,0.00004776589940779
795,-0.00281000137329102,0.000032257954455699
796,-0.00285482406616211,0.0000368223582906752
797,-0.00283384323120117,0.0000487552878149772
798,-0.00280427932739258,0.0000440822993635267
799,-0.002716064453125,0.0000529450314732354
800,-0.00282526016235352,0.0000733771669833044
801,-0.00281620025634766,0.0000480743145977427
802,-0.00275707244873047,0.0000539458587103582
803,-0.00278854370117187,0.0000475882528300272
804,-0.00272417068481445,0.0000613213327030665
805,-0.00279760360717773,0.0000425461945845035
806,-0.00272655487060547,0.0000466362830042472
807,-0.00269603729248047,0.0000463820658251241
808,-0.00277471542358398,0.0000449468030711097
809,-0.0027766227722168,0.0000478776326584862
810,-0.00266265869140625,0.0000603797110961686
811,-0.00277805328369141,0.0000750469582376852
812,-0.00276899337768555,0.0000579371864226115
813,-0.0028996467590332,0.0000348352308136537
814,-0.00280332565307617,0.0000392609601162342
815,-0.00285196304321289,0.0000530897737873717
816,-0.00289058685302734,0.0000504062212057242
817,-0.00287389755249023,0.0000502367804559782
818,-0.00282955169677734,0.0000546680856627141
819,-0.00282382965087891,0.0000691084947939477
820,-0.00278711318969727,0.0000440913248274492
821,-0.00278949737548828,0.0000473067162308906
822,-0.00280094146728516,0.0000519139689778063
823,-0.00287389755249023,0.0000553326325659718
824,-0.00289583206176758,0.0000538530521909244
825,-0.00287008285522461,0.0000654831287064379
826,-0.00288915634155273,0.0000528311040288143
827,-0.00284624099731445,0.0000567135611015563
828,-0.00281047821044922,0.0000519347689409064
829,-0.00283050537109375,0.000051833975690419
830,-0.00281906127929687,0.0000574326554292501
831,-0.00277519226074219,0.0000361076259949542
832,-0.00276756286621094,0.0000422384604876328
833,-0.00277900695800781,0.0000620896180302311
834,-0.00270652770996094,0.0000543855721400748
835,-0.00280046463012695,0.0000381283416550624
836,-0.00261688232421875,0.0000482336754470894
837,-0.00271749496459961,0.000049875662363388
838,-0.00269508361816406,0.0000549750024464887
839,-0.0026555061340332,0.0000416325537038476
840,-0.0026850700378418,0.0000539669288430642
841,-0.00260400772094727,0.0000662975151871706
842,-0.00261211395263672,0.0000720324043303745
843,-0.00258302688598633,0.0000517692332611695
844,-0.00261545181274414,0.0000703492389418492
845,-0.00250482559204102,0.000072374079346032
846,-0.00255060195922852,0.0000637911174804731
847,-0.00255966186523437,0.0000622815775575855
848,-0.00255489349365234,0.0000685186956279223
849,-0.00241565704345703,0.0000600445724829948
850,-0.00259780883789062,0.000063187670797262
851,-0.00246047973632812,0.0000549708663442787
852,-0.00244665145874023,0.0000459622542804753
853,-0.0024113655090332,0.0000410703251907702
854,-0.00257158279418945,0.0000450163068497162
855,-0.00250625610351562,0.0000492321376767742
856,-0.00254964828491211,0.0000581321017276602
857,-0.00256681442260742,0.0000424224308725135
858,-0.00256967544555664,0.0000545296180126807
859,-0.00256681442260742,0.0000560288733601434
860,-0.00258398056030273,0.0000422700743440531
861,-0.00262117385864258,0.0000666839333771133
862,-0.00261878967285156,0.0000514796452408968
863,-0.00261116027832031,0.000049823208464043
864,-0.00253391265869141,0.0000448987194302877
865,-0.00267362594604492,0.0000577721228780041
866,-0.00264358520507812,0.0000466204350426061
867,-0.00268697738647461,0.000059946036178738
868,-0.00269412994384766,0.000045348442173313
869,-0.00271034240722656,0.0000519358634450517
870,-0.00271463394165039,0.0000667674193056764
871,-0.00276947021484375,0.0000698725093231743
872,-0.00273799896240234,0.0000545848389482658
873,-0.00279045104980469,0.0000628575560945305
874,-0.00274324417114258,0.0000478966251252057
875,-0.00272893905639648,0.0000490783356564572
876,-0.00270462036132812,0.0000560278588129982
877,-0.00276565551757812,0.000053629873275248
878,-0.00275325775146484,0.0000524705074218306
879,-0.00264072418212891,0.0000715684762078227
880,-0.00273227691650391,0.0000745545227996615
881,-0.00271129608154297,0.0000582434678807444
882,-0.00271177291870117,0.0000447071391836218
883,-0.00264406204223633,0.0000585306686097398
884,-0.00259828567504883,0.0000717382448208911
885,-0.00264406204223633,0.0000819411046779249
886,-0.00253105163574219,0.0000584130384463851
887,-0.00263118743896484,0.0000578890915071231
888,-0.00253057479858398,0.0000808840080827361
889,-0.00255918502807617,0.0000504648278685454
890,-0.00254917144775391,0.0000622012094845594
891,-0.0024724006652832,0.0000551535920581541
892,-0.00252103805541992,0.0000757195787097138
893,-0.00244903564453125,0.000083650611843342
894,-0.0024409294128418,0.0000702182180917922
895,-0.00242042541503906,0.0000490250286718191
896,-0.00244140625,0.0000514619751343168
897,-0.00240993499755859,0.0000618345835779088
898,-0.00233650207519531,0.0000702036451255026
899,-0.00237751007080078,0.0000621664729698301
900,-0.00236606597900391,0.0000556767366514535
