Wavelength (nm),Absorbance (AU),Std.Dev.
200,1.51749467849731,0.783921214602032
201,1.38692665100098,0.506428402207558
202,1.28695011138916,0.228265087017642
203,1.8145637512207,0.134404236917469
204,2.25689077377319,0.179225160971319
205,2.18874406814575,0.134659435065459
206,2.36385297775269,0.0971446560444683
207,2.74722814559937,0.146174803092332
208,2.79285526275635,0.106324293304398
209,3.03302049636841,0.478057018757798
210,3.02157545089722,0.759903686845412
211,3.56995010375977,0.368131681682783
212,2.91281986236572,0.161876833400875
213,2.9885687828064,0.547070277635218
214,3.10003757476807,1.13544951691775
215,3.85757780075073,0.546302713953937
216,3.07165241241455,0.173000465524742
217,3.25392723083496,0.181335849819299
218,3.0305233001709,0.280910711146298
219,3.42986249923706,0.516127832472853
220,3.48067665100098,0.670385795089524
221,3.37766551971436,0.489638737999762
222,3.04639768600464,1.00878102686175
223,3.76782131195068,1.45249482303294
224,3.98505210876465,1.36609331214965
225,3.58095455169678,0.580429843918227
226,2.86271810531616,0.107800734610523
227,2.89959526062012,0.0676406130439323
228,2.82771778106689,0.100874699286068
229,2.74118900299072,0.116904361728978
230,2.61307525634766,0.0603950812705373
231,2.46408081054687,0.0367453945154617
232,2.3011679649353,0.0206129015493058
233,2.13713359832764,0.0146804459859576
234,2.05104970932007,0.0130241072035731
235,1.96709537506104,0.00952285365504786
236,1.86961078643799,0.00692473369320451
237,1.77175998687744,0.00641058031128872
238,1.68835878372192,0.00386550635585181
239,1.6244592666626,0.00282563770363054
240,1.56602764129639,0.00297049082361726
241,1.5168514251709,0.00232735302306367
242,1.47994041442871,0.00260407229093567
243,1.45447015762329,0.00289844704700964
244,1.42358255386353,0.00235900089316879
245,1.4110369682312,0.00280263707859347
246,1.39865732192993,0.00228988622549872
247,1.39089202880859,0.00148477505011253
248,1.38058662414551,0.00207238848984433
249,1.38610124588013,0.00326837420300056
250,1.37854385375977,0.00221683476957626
251,1.38564348220825,0.001819638585929
252,1.38753795623779,0.00180998441195823
253,1.38726949691772,0.0029119910786048
254,1.38446283340454,0.00459894940932356
255,1.39351606369019,0.00418925322653741
256,1.3883261680603,0.00393653100064345
257,1.37790393829346,0.00242777835563663
258,1.38236618041992,0.00267703702097414
259,1.37431812286377,0.00402681727256528
260,1.3607292175293,0.00436540061412259
261,1.34000301361084,0.00453450546392443
262,1.32674217224121,0.00324714775279924
263,1.30371952056885,0.00275246731385738
264,1.27477741241455,0.00200587795066961
265,1.25987148284912,0.00278195805055623
266,1.23228549957275,0.00292809761140405
267,1.19887828826904,0.0035655973505257
268,1.16679573059082,0.0023516363341441
269,1.13929271697998,0.00246262863120941
270,1.10972547531128,0.00214172745946465
271,1.08478784561157,0.00157505889036949
272,1.06374740600586,0.00164349271280056
273,1.04915904998779,0.00216066823827809
274,1.0317440032959,0.00224807071756004
275,1.0132098197937,0.00221410234680609
276,1.00362586975098,0.00176171293913228
277,0.99033784866333,0.00168594083458656
278,0.984463691711426,0.00111608420092223
279,0.976178169250488,0.00112476010877578
280,0.967945098876953,0.00173554891517068
281,0.958420276641846,0.0010428854894801
282,0.948122501373291,0.00119506617731941
283,0.93575382232666,0.00107774480909362
284,0.918315887451172,0.000987793004577606
285,0.900475025177002,0.00115019290436052
286,0.883976459503174,0.00120821766584041
287,0.864837646484375,0.000907930004932388
288,0.852344512939453,0.000805849718608314
289,0.838035583496094,0.000779954014161507
290,0.828142166137695,0.000996417619375036
291,0.823459625244141,0.00122700495089744
292,0.817997455596924,0.00155238963444729
293,0.814993858337402,0.00103509826317804
294,0.81467342376709,0.000794208610812543
295,0.815634727478027,0.000733315399639929
296,0.815125942230225,0.000857993174548972
297,0.817123889923096,0.000910378921063315
298,0.821312427520752,0.000995979396015456
299,0.822844505310059,0.0010843675382973
300,0.823419570922852,0.00103177512590991
301,0.82826566696167,0.000844677692168336
302,0.825949192047119,0.000862475972212361
303,0.825416564941406,0.00118690429665906
304,0.827480792999268,0.00133956178306205
305,0.827260494232178,0.000956629941451518
306,0.82621955871582,0.00097805148098243
307,0.825228691101074,0.0015566208621581
308,0.821811676025391,0.00146912901634655
309,0.819386959075928,0.00081876591938136
310,0.812601089477539,0.00086397629802808
311,0.811203956604004,0.000767086203874273
312,0.804601669311523,0.00104531058096032
313,0.801212310791016,0.00111684017017418
314,0.795215606689453,0.000935589014908108
315,0.785232067108154,0.000519793622551381
316,0.778304576873779,0.000466103870829135
317,0.770524024963379,0.000436170223350992
318,0.759721279144287,0.000639948865357169
319,0.748867034912109,0.0010223673346812
320,0.740650177001953,0.00103422626970401
321,0.728328704833984,0.00110045917021246
322,0.716100215911865,0.000784975348931395
323,0.704496383666992,0.000536287285485534
324,0.691239833831787,0.000402210941663394
325,0.678253650665283,0.000400552295400187
326,0.665824413299561,0.000736582383290851
327,0.652027130126953,0.000738023161559155
328,0.63797664642334,0.000577999022328625
329,0.623848915100098,0.000624912151480872
330,0.609983444213867,0.000584309023623581
331,0.595236301422119,0.000520297298660399
332,0.581857681274414,0.000710476484791432
333,0.567574977874756,0.000495440920869575
334,0.552346706390381,0.000463583822032365
335,0.540027618408203,0.000284668189174639
336,0.523052215576172,0.000354140764944788
337,0.510066509246826,0.000488579182329876
338,0.49547290802002,0.000527739619088536
339,0.482629299163818,0.000356066793491258
340,0.468399047851563,0.000499171758471296
341,0.454468727111816,0.000496438552398604
342,0.440441131591797,0.000486826218857198
343,0.427288055419922,0.000447873727143514
344,0.414237976074219,0.000461554723717217
345,0.400538444519043,0.000357473976084838
346,0.388025760650635,0.000482306583910129
347,0.375314235687256,0.000349778826235229
348,0.362093925476074,0.000290575033569286
349,0.349579334259033,0.000293793609830197
350,0.337479591369629,0.000304382007155818
351,0.325011730194092,0.000313055124673345
352,0.313098907470703,0.000310048305911501
353,0.302244663238525,0.000289967181228331
354,0.290715217590332,0.000276881070862281
355,0.279029846191406,0.0002968486527936
356,0.268589496612549,0.000151162643822285
357,0.258062362670898,0.000236787941785255
358,0.246788024902344,0.000383154011829942
359,0.237235546112061,0.000412710755551674
360,0.227428436279297,0.00037099769566334
361,0.218358516693115,0.000392682275787168
362,0.20870304107666,0.000318966636686546
363,0.200417995452881,0.000259441484517821
364,0.19242525100708,0.000304376031088845
365,0.183670520782471,0.000304376031088845
366,0.177220821380615,0.000289942087793882
367,0.17074728012085,0.000225934281665504
368,0.16414737701416,0.000292701897682625
369,0.157454967498779,0.000228101672284588
370,0.150504112243652,0.000318515800225619
371,0.144824028015137,0.000314070306421165
372,0.138393402099609,0.000202569943364239
373,0.132259368896484,0.000171183875675029
374,0.126454830169678,0.000198029271955045
375,0.119956016540527,0.000222796772493146
376,0.114998817443848,0.000165313329162754
377,0.109566211700439,0.00026586141172232
378,0.104448318481445,0.00021482029971108
379,0.0991501808166504,0.000223453035618972
380,0.0942344665527344,0.000246188397220803
381,0.0897040367126465,0.000241936479301287
382,0.0852360725402832,0.000203273616809825
383,0.0806365013122559,0.000176689884071097
384,0.0766062736511231,0.000198785627756712
385,0.0730891227722168,0.000185204436185163
386,0.0686635971069336,0.000218430977782474
387,0.0652780532836914,0.000265114598905854
388,0.0619535446166992,0.000203876744285429
389,0.0583410263061523,0.000262307249572949
390,0.0551667213439941,0.000204420262125991
391,0.0520529747009277,0.00016591192435705
392,0.0494909286499023,0.000214103600994376
393,0.0467514991760254,0.000201051193793014
394,0.0437998771667481,0.00020120042041684
395,0.0414042472839356,0.000245803889367478
396,0.0388669967651367,0.000273749384377905
397,0.036372184753418,0.000254071438680217
398,0.0341801643371582,0.000170819549574927
399,0.0323266983032227,0.000129629564953203
400,0.0297822952270508,0.00021561477494788
401,0.028069019317627,0.000161528895261689
402,0.0260720252990723,0.000258844848683933
403,0.0241761207580566,0.000210349512101295
404,0.023017406463623,0.000232958255605571
405,0.021334171295166,0.000202758426482205
406,0.0193052291870117,0.000202740483258588
407,0.0177292823791504,0.000237841862296932
408,0.0167484283447266,0.00032975625322952
409,0.0152482986450195,0.000186686467029452
410,0.013704776763916,0.000171809662245003
411,0.0125079154968262,0.000144392716379472
412,0.0116276741027832,0.000126964105534688
413,0.0105810165405273,0.000235532458122743
414,0.00933170318603516,0.00025239779494081
415,0.00846672058105469,0.000279105786748062
416,0.00744342803955078,0.000236030058387484
417,0.00667476654052734,0.000181428862771517
418,0.00601959228515625,0.000236634253223737
419,0.00530338287353516,0.000193762590014653
420,0.00468111038208008,0.000138128128394591
421,0.00383949279785156,0.000194362475629532
422,0.00337839126586914,0.000169222782686086
423,0.00251913070678711,0.000183675791729789
424,0.00181436538696289,0.000141590930893121
425,0.00109052658081055,0.000170808900640961
426,0.000757694244384766,0.000194614997779287
427,0.00105428695678711,0.000193414932394901
428,-0.00011444091796875,0.000161846708047344
429,-0.000391960144042969,0.000160103712245432
430,-0.000258922576904297,0.000180468848476651
431,-0.000834941864013672,0.000168398470305641
432,-0.00168514251708984,0.000251993888969129
433,-0.00122785568237305,0.000186647488750077
434,-0.00147294998168945,0.000137953530707259
435,-0.00279092788696289,0.000135562715906785
436,-0.00233221054077148,0.000144848656449412
437,-0.00284242630004883,0.00018860582381184
438,-0.00284051895141602,0.000147100978734275
439,-0.00298070907592773,0.000134637063623046
440,-0.00367403030395508,0.000143669698464
441,-0.00295782089233398,0.000146837974975586
442,-0.00366926193237305,0.000139295225932634
443,-0.00352621078491211,0.000159955946905003
444,-0.00388622283935547,0.000155337709306973
445,-0.0039825439453125,0.000165848871764986
446,-0.00417041778564453,0.000159967318315596
447,-0.00429773330688477,0.000127955944064026
448,-0.00453090667724609,0.000113435140237421
449,-0.00465154647827148,0.000132807495087749
450,-0.00471735000610352,0.000152480564519296
451,-0.00502490997314453,0.000132406268248051
452,-0.00501346588134766,0.000123156985759912
453,-0.00508451461791992,0.000137524333568165
454,-0.00533246994018555,0.00014344162101081
455,-0.00525569915771484,0.000136108403783208
456,-0.00530242919921875,0.000169558358737468
457,-0.00550079345703125,0.000142330899622289
458,-0.00543928146362305,0.000122938939941999
459,-0.00565528869628906,0.0000817758348686267
460,-0.00586223602294922,0.000079385868781919
461,-0.00565862655639648,0.0000865088270267176
462,-0.00618267059326172,0.00014284755205805
463,-0.00581169128417969,0.000112793912228234
464,-0.00577545166015625,0.0000914931103150288
465,-0.00606727600097656,0.000119842753569197
466,-0.00620317459106445,0.000113286714740599
467,-0.00639581680297852,0.0000734762584085778
468,-0.00625038146972656,0.0000837171796697798
469,-0.00668239593505859,0.000119447470186952
470,-0.00665140151977539,0.0000871738663858825
471,-0.00648403167724609,0.000107045428429416
472,-0.0065770149230957,0.000143644374408197
473,-0.00651359558105469,0.0001148890621723
474,-0.0067744255065918,0.000139438795657814
475,-0.00636196136474609,0.000122323369940368
476,-0.00685501098632813,0.000104251914544465
477,-0.00677871704101563,0.0000776381100748858
478,-0.00678157806396484,0.000105179079692756
479,-0.00694847106933594,0.00012441338484855
480,-0.00659513473510742,0.000106785975534379
481,-0.00708198547363281,0.0000835540623237973
482,-0.00694894790649414,0.0000935840757325861
483,-0.0070195198059082,0.000101204123354811
484,-0.00711870193481445,0.000085320546136265
485,-0.00592041015625,0.0000695528742664903
486,-0.00632047653198242,0.0000569326394108072
487,-0.00764083862304688,0.0000755136041150256
488,-0.00701761245727539,0.0000745895868363704
489,-0.00698184967041016,0.0000916321727711816
490,-0.00690984725952148,0.000110519291731401
491,-0.00692558288574219,0.000107530743933957
492,-0.00716543197631836,0.0000941243214582187
493,-0.00701570510864258,0.000094574973669496
494,-0.00697994232177734,0.0000920233946787866
495,-0.00699758529663086,0.0000970735525520175
496,-0.00675678253173828,0.000116820237973147
497,-0.00704336166381836,0.000126526383575154
498,-0.0069117546081543,0.0000782797582596875
499,-0.00674295425415039,0.0000941871080408202
500,-0.00691556930541992,0.000088863309347241
501,-0.00657749176025391,0.0000820381666855109
502,-0.00667524337768555,0.0000899315386030716
503,-0.00664520263671875,0.000064487708316056
504,-0.00680351257324219,0.0000780077026702314
505,-0.0065159797668457,0.0000876005795997326
506,-0.00648403167724609,0.0000775824460579405
507,-0.00646209716796875,0.0000788354745312369
508,-0.00640439987182617,0.0000966204345174882
509,-0.00635337829589844,0.0000782448949451941
510,-0.00630855560302734,0.0000895794159042274
511,-0.00613927841186523,0.0000877587667108715
512,-0.00617170333862305,0.0000997011652039595
513,-0.00605297088623047,0.0000773358723934681
514,-0.0059356689453125,0.0000768507073463736
515,-0.00581979751586914,0.0000951382744853205
516,-0.00581979751586914,0.0000883886841639214
517,-0.00583457946777344,0.0000963966149198923
518,-0.00561094284057617,0.0000999835537202851
519,-0.00556230545043945,0.000091002219791571
520,-0.00554418563842773,0.0000641855406252524
521,-0.00554466247558594,0.0000854616709559759
522,-0.00522851943969727,0.0000912442573537063
523,-0.00516557693481445,0.000101473367274976
524,-0.00518989562988281,0.000119012670493779
525,-0.00516414642333984,0.00008725468553918
526,-0.00506925582885742,0.000087092972235343
527,-0.00499343872070313,0.000079668915832951
528,-0.00488376617431641,0.0000879528691170995
529,-0.00483274459838867,0.000137946937788394
530,-0.00478696823120117,0.0000892157098417413
531,-0.00487470626831055,0.0000721349191620699
532,-0.0045628547668457,0.000090832159432291
533,-0.00460100173950195,0.0000694907340518386
534,-0.00456905364990234,0.0000858584994717764
535,-0.00459146499633789,0.0000740081378481584
536,-0.00443792343139648,0.0000813800531127562
537,-0.00438499450683594,0.0000881594406402432
538,-0.00419330596923828,0.0000763713920422418
539,-0.00418806076049805,0.0000856304482025453
540,-0.0042881965637207,0.0000843341482903829
541,-0.00418615341186523,0.00006393175415838
542,-0.00413942337036133,0.0000970735525520175
543,-0.00413370132446289,0.0000956507289699601
544,-0.00408792495727539,0.0000686363983722072
545,-0.00408172607421875,0.000055767527582927
546,-0.00407838821411133,0.000072257744977289
547,-0.00407838821411133,0.0000668865041545829
548,-0.00390148162841797,0.0000873562550435042
549,-0.0039210319519043,0.0000757946124981763
550,-0.00392389297485352,0.0000574069164114761
551,-0.00380134582519531,0.0000668439982057847
552,-0.00374078750610352,0.000063167876569925
553,-0.00382661819458008,0.0000702651548676465
554,-0.00379467010498047,0.000104580727364894
555,-0.00365114212036133,0.0000938557986169299
556,-0.00369691848754883,0.000065141959632767
557,-0.00366687774658203,0.0000614750181743931
558,-0.00372219085693359,0.0000690327810798225
559,-0.00380563735961914,0.0000599033500385837
560,-0.00366020202636719,0.0000763013955293346
561,-0.003570556640625,0.0000594652453160091
562,-0.00375080108642578,0.000072344227560686
563,-0.00361967086791992,0.0000653510500745797
564,-0.00352191925048828,0.000074656619975324
565,-0.00357484817504883,0.0000849252199588516
566,-0.00355863571166992,0.0000796746235930839
567,-0.00328254699707031,0.0000609745902324076
568,-0.00338840484619141,0.0000669051982169615
569,-0.00326824188232422,0.0000843584097409516
570,-0.00316953659057617,0.0000724651297822714
571,-0.00325679779052734,0.0000631030520500976
572,-0.00331926345825195,0.000062396469808912
573,-0.00323820114135742,0.000071985040552543
574,-0.00299358367919922,0.0000633386227314771
575,-0.00341701507568359,0.0000558958108829763
576,-0.00323247909545898,0.0000573226889692717
577,-0.00321531295776367,0.0000555039271455665
578,-0.00291872024536133,0.0000540784634910317
579,-0.00356531143188477,0.0000787055805758106
580,-0.00302028656005859,0.0000479108645344367
581,-0.00319147109985352,0.0000561697171120728
582,-0.00274801254272461,0.000061803320086957
583,-0.00406551361083984,0.0000724839535239819
584,-0.00313091278076172,0.0000713521125605221
585,-0.00285100936889648,0.0000582415159237795
586,-0.00334739685058594,0.0000598539859180954
587,-0.00319623947143555,0.0000584723691810062
588,-0.00313282012939453,0.0000442226297554458
589,-0.00336313247680664,0.0000459189479324474
590,-0.00317049026489258,0.0000757345914145641
591,-0.00325155258178711,0.0000576499871114793
592,-0.00298213958740234,0.0000442508993458564
593,-0.00285243988037109,0.0000378335053931566
594,-0.00332212448120117,0.0000371275222358643
595,-0.00309944152832031,0.0000470162405202617
596,-0.0032343864440918,0.0000676167868640067
597,-0.00322484970092773,0.0000568846944447305
598,-0.0031895637512207,0.0000785870458306525
599,-0.00285005569458008,0.0000549139633478213
600,-0.00328207015991211,0.0000641695976477719
601,-0.00308418273925781,0.0000667214297771192
602,-0.00315427780151367,0.0000703217609791937
603,-0.00302314758300781,0.0000581008026835081
604,-0.00321388244628906,0.0000538414401280602
605,-0.00316095352172852,0.0000498995903768642
606,-0.0030975341796875,0.0000600057457608771
607,-0.00309276580810547,0.0000647498509766452
608,-0.00302600860595703,0.0000663797744528738
609,-0.00308561325073242,0.000086437833007686
610,-0.00291967391967773,0.0000623454327252771
611,-0.00312328338623047,0.0000528074279100348
612,-0.00296497344970703,0.0000588039017084808
613,-0.00311708450317383,0.0000622669728962152
614,-0.00307130813598633,0.0000592449780809916
615,-0.00303936004638672,0.0000487727730653804
616,-0.00322055816650391,0.0000652291621023082
617,-0.00322389602661133,0.0000562384906039925
618,-0.0031580924987793,0.0000633278523831949
619,-0.00325298309326172,0.0000822112066725095
620,-0.00310659408569336,0.000076417524864448
621,-0.00340843200683594,0.0000559232618762885
622,-0.00303506851196289,0.0000634247196757042
623,-0.00317287445068359,0.0000693318604434164
624,-0.00320816040039062,0.0000670816846143342
625,-0.00325822830200195,0.0000591950649315942
626,-0.00322151184082031,0.000065627068807358
627,-0.00306034088134766,0.0000540858208906447
628,-0.0029902458190918,0.0000575720396874535
629,-0.00286865234375,0.0000666191171584887
630,-0.00274944305419922,0.0000565047002520486
631,-0.00297689437866211,0.0000637768584990197
632,-0.00304365158081055,0.0000594403864616675
633,-0.0030817985534668,0.0000641217449313411
634,-0.00322151184082031,0.0000457949898509722
635,-0.0032200813293457,0.0000614139603693845
636,-0.00312185287475586,0.0000522849280371885
637,-0.00319099426269531,0.0000490748608790154
638,-0.00318050384521484,0.0000731677059112208
639,-0.003082275390625,0.0000666225301105214
640,-0.00316476821899414,0.000106314370648013
641,-0.00309371948242187,0.0000899568180241199
642,-0.00311374664306641,0.0000741033173051618
643,-0.00311183929443359,0.0000629695920747032
644,-0.00313234329223633,0.0000787460149892541
645,-0.00310468673706055,0.0000927665827126097
646,-0.0030970573425293,0.0000739236018846663
647,-0.00318479537963867,0.0000714826455038967
648,-0.00308990478515625,0.0000514144566314088
649,-0.00307893753051758,0.0000712309172165832
650,-0.00308656692504883,0.0000718047732699626
651,-0.00323915481567383,0.0000734484024575492
652,-0.00295925140380859,0.0000607326581259219
653,-0.00304555892944336,0.0000628919109107878
654,-0.0030522346496582,0.0000713552991318815
655,-0.00323104858398437,0.0000640099494726175
656,0.000316619873046875,0.000048248993523446
657,-0.00572061538696289,0.0000505121143784957
658,-0.00343704223632812,0.0000714158169726227
659,-0.00301122665405273,0.0000474015470288684
660,-0.0030665397644043,0.0000657689653380076
661,-0.00303792953491211,0.0000758995351832258
662,-0.00310850143432617,0.0000693023386790618
663,-0.00303316116333008,0.0000574761875085215
664,-0.00309514999389648,0.0000626183601910696
665,-0.00296926498413086,0.0000794803297982546
666,-0.00302982330322266,0.0000684589380449032
667,-0.00310087203979492,0.0000543364258635988
668,-0.00309085845947266,0.0000744843452063241
669,-0.00313186645507812,0.0000590508483139523
670,-0.00300407409667969,0.0000435999726323669
671,-0.00300359725952148,0.0000514199842949376
672,-0.00300121307373047,0.0000424485516180323
673,-0.00305843353271484,0.0000666464158810025
674,-0.003143310546875,0.0000600871582982844
675,-0.00303745269775391,0.0000460005772845563
676,-0.00302314758300781,0.0000482701951425983
677,-0.00299263000488281,0.0000529031433000984
678,-0.00305414199829102,0.0000446218699278323
679,-0.00303792953491211,0.0000439104630783895
680,-0.00290489196777344,0.0000521859003718563
681,-0.00298976898193359,0.0000644136230116588
682,-0.00292825698852539,0.000062799652869764
683,-0.00295925140380859,0.0000531807057305621
684,-0.00290393829345703,0.0000516956138789552
685,-0.00284433364868164,0.0000500633600990859
686,-0.00290966033935547,0.000056330394350191
687,-0.00284481048583984,0.0000597741577599798
688,-0.00283050537109375,0.0000431820739695298
689,-0.00292444229125977,0.0000349988404526715
690,-0.00279903411865234,0.0000416891776324408
691,-0.00279760360717773,0.000055451671749881
692,-0.00287485122680664,0.0000527158520870827
693,-0.00279617309570312,0.0000496128382932352
694,-0.00287103652954102,0.0000612174233258421
695,-0.00289201736450195,0.0000658777757911192
696,-0.002838134765625,0.0000463661309720334
697,-0.00287771224975586,0.000043749646854359
698,-0.00283098220825195,0.000039746601074552
699,-0.00291013717651367,0.000049021550115837
700,-0.00297689437866211,0.0000681076379910313
701,-0.00296401977539062,0.000068899256860316
702,-0.00296545028686523,0.0000526759399372378
703,-0.00295019149780273,0.0000607317221573898
704,-0.00309658050537109,0.0000615156897092255
705,-0.00298261642456055,0.0000530490714429657
706,-0.00307607650756836,0.0000581799957573339
707,-0.00302362442016602,0.0000502198049380554
708,-0.00305652618408203,0.0000629154060289785
709,-0.00318765640258789,0.000043680730276426
710,-0.00315666198730469,0.0000516108768363556
711,-0.00303840637207031,0.0000483431517698553
712,-0.00311851501464844,0.0000476383947525407
713,-0.00316143035888672,0.0000397887679966641
714,-0.00311851501464844,0.0000475296870636262
715,-0.00313901901245117,0.0000473127238144098
716,-0.00311374664306641,0.0000442290562489846
717,-0.00303936004638672,0.000064183769378874
718,-0.00297880172729492,0.0000660552861757151
719,-0.00297975540161133,0.0000499348917266094
720,-0.00287437438964844,0.0000643412193604918
721,-0.00289154052734375,0.0000549553531885178
722,-0.00288486480712891,0.0000425047571649699
723,-0.00286531448364258,0.0000415286567112026
724,-0.00274658203125,0.0000485309202166899
725,-0.00273370742797852,0.0000392435822421434
726,-0.00280427932739258,0.0000610965926198143
727,-0.00267791748046875,0.0000690377214618286
728,-0.00271511077880859,0.0000683791800317511
729,-0.00275802612304687,0.0000540553337157489
730,-0.00274419784545898,0.0000584850056555547
731,-0.00269460678100586,0.000041189181581086
732,-0.0027623176574707,0.0000447897079521137
733,-0.00277042388916016,0.0000504321517834406
734,-0.00280666351318359,0.0000385921548708028
735,-0.00270700454711914,0.0000386811642954835
736,-0.00280857086181641,0.0000379242954320336
737,-0.00275659561157227,0.000043494240764585
738,-0.00286054611206055,0.0000459177100080687
739,-0.00281333923339844,0.0000502978448824512
740,-0.00285005569458008,0.0000518493264334558
741,-0.00296831130981445,0.0000611300773425776
742,-0.00293302536010742,0.0000594776708469954
743,-0.00294017791748047,0.0000484136502786823
744,-0.00296163558959961,0.0000570961476079371
745,-0.0030369758605957,0.0000524748406043817
746,-0.00299644470214844,0.0000482006661331454
747,-0.0030059814453125,0.0000521989697185105
748,-0.00294637680053711,0.0000490400995631439
749,-0.0029444694519043,0.0000562374798384284
750,-0.00290346145629883,0.0000321157879434611
751,-0.00290107727050781,0.000036783745039675
752,-0.00295162200927734,0.0000478313069266333
753,-0.00285911560058594,0.000054097380496932
754,-0.00282144546508789,0.0000516945142881168
755,-0.00284290313720703,0.0000418341389284703
756,-0.00273847579956055,0.0000413434590370048
757,-0.00273990631103516,0.0000467446362806415
758,-0.00273942947387695,0.0000570154491152344
759,-0.00272130966186523,0.0000414793515146866
760,-0.00271177291870117,0.000059235382664755
761,-0.0027470588684082,0.0000551721404333407
762,-0.00274085998535156,0.0000468963951250484
763,-0.00266408920288086,0.0000493002120041124
764,-0.00259065628051758,0.0000546545666997321
765,-0.0025486946105957,0.0000490308257166988
766,-0.00269746780395508,0.0000470524970409728
767,-0.00271797180175781,0.0000524878380056554
768,-0.00269794464111328,0.0000622249654007361
769,-0.00257968902587891,0.0000536616614786648
770,-0.00266551971435547,0.0000566584083499111
771,-0.00270843505859375,0.0000548424924557872
772,-0.00272178649902344,0.0000575730270231767
773,-0.00271177291870117,0.0000511739807609045
774,-0.002777099609375,0.0000587884331032656
775,-0.00278615951538086,0.0000472682496158142
776,-0.00277328491210937,0.0000428808921701662
777,-0.00279092788696289,0.0000370685306442313
778,-0.00275373458862305,0.0000528504675095915
779,-0.00277090072631836,0.0000425488665806491
780,-0.00286626815795898,0.0000346593706057317
781,-0.0028533935546875,0.0000424351583724102
782,-0.00286531448364258,0.0000347609055509806
783,-0.00294923782348633,0.0000416332363781945
784,-0.00291347503662109,0.0000485519987246427
785,-0.00294208526611328,0.0000600209006407149
786,-0.00296545028686523,0.0000651820872581742
787,-0.00292253494262695,0.0000472080827809904
788,-0.00291204452514648,0.000049830053408338
789,-0.00286531448364258,0.0000483125704683833
790,-0.00301980972290039,0.0000431689083013774
791,-0.00288248062133789,0.0000540469204341857
792,-0.00294780731201172,0.0000452643810232611
793,-0.00293397903442383,0.0000378004367686953
794,-0.00290966033935547,0.0000434916268494551
795,-0.00283145904541016,0.0000359846228498953
796,-0.00288724899291992,0.0000480695847360038
797,-0.00293254852294922,0.0000508038608453516
798,-0.00286960601806641,0.0000406963125102079
799,-0.00279378890991211,0.0000535035940272267
800,-0.00288724899291992,0.0000736431728449554
801,-0.00284004211425781,0.000048011606113975
802,-0.00284767150878906,0.0000530372833556353
803,-0.00283718109130859,0.0000418599477998154
804,-0.00279140472412109,0.0000590797198006986
805,-0.00283384323120117,0.0000390009364669153
806,-0.00279664993286133,0.0000426549428659416
807,-0.0027165412902832,0.0000466058013718163
808,-0.00281763076782227,0.0000466167770555697
809,-0.00282192230224609,0.0000487179649730382
810,-0.00277137756347656,0.0000603542870676003
811,-0.00281286239624023,0.0000699814375057542
812,-0.00284862518310547,0.0000500758482666613
813,-0.00291967391967773,0.0000348009465711549
814,-0.00285768508911133,0.0000371527756728485
815,-0.00287628173828125,0.0000488961572854717
816,-0.00288152694702148,0.0000435582326860956
817,-0.00290203094482422,0.0000537473957183626
818,-0.00292491912841797,0.0000550277104985774
819,-0.00280904769897461,0.0000713648579922426
820,-0.00283718109130859,0.0000458297319096114
821,-0.00282955169677734,0.0000590421841149014
822,-0.00289011001586914,0.000073757322068082
823,-0.00290584564208984,0.0000776102830568647
824,-0.00296926498413086,0.0000498973120128068
825,-0.00287961959838867,0.0000688447838591579
826,-0.00292301177978516,0.0000581193885238365
827,-0.00285530090332031,0.0000520593941997562
828,-0.00291776657104492,0.0000524336609118784
829,-0.00280332565307617,0.0000478479418370101
830,-0.00295114517211914,0.0000590941502544446
831,-0.00286293029785156,0.0000500894681712468
832,-0.00285768508911133,0.0000530929858013982
833,-0.00279045104980469,0.0000584762576178637
834,-0.00276708602905273,0.0000558306879471431
835,-0.00277805328369141,0.0000472357690434319
836,-0.00272130966186523,0.0000472080827809904
837,-0.00270938873291016,0.0000438417992942735
838,-0.00272369384765625,0.0000504389140895631
839,-0.00269317626953125,0.0000403286982240369
840,-0.0026249885559082,0.0000474997787513078
841,-0.00264501571655273,0.0000649006728592691
842,-0.00260591506958008,0.0000711798258631021
843,-0.0026392936706543,0.0000513668941700877
844,-0.00259160995483398,0.0000736786705988047
845,-0.00254917144775391,0.0000747357634420295
846,-0.00247907638549805,0.0000642421947241072
847,-0.00245809555053711,0.0000643818460696035
848,-0.00249910354614258,0.0000694907340518386
849,-0.00239706039428711,0.0000580215015198029
850,-0.00256586074829102,0.0000739712613083039
851,-0.00243616104125977,0.000074482818872136
852,-0.0024113655090332,0.0000528773494695548
853,-0.00244045257568359,0.0000452241772795468
854,-0.00249624252319336,0.0000486175178620846
855,-0.00248384475708008,0.0000527438803942974
856,-0.00252103805541992,0.0000595216172824523
857,-0.00252580642700195,0.0000538467186488842
858,-0.00253009796142578,0.0000682710258668406
859,-0.00253915786743164,0.000054897398673911
860,-0.00256204605102539,0.0000477896943178082
861,-0.00264596939086914,0.0000582990711806409
862,-0.00257062911987305,0.0000412904911800794
863,-0.00262594223022461,0.0000335357576649326
864,-0.00247907638549805,0.0000472405823892479
865,-0.00263214111328125,0.0000657689653380076
866,-0.00264596939086914,0.0000487820959696164
867,-0.00260305404663086,0.0000655820131185692
868,-0.0026555061340332,0.0000438158604686126
869,-0.00269174575805664,0.0000546608066365819
870,-0.00274896621704102,0.0000674130376936382
871,-0.00276708602905273,0.0000442984029724867
872,-0.00281906127929687,0.0000747159854347263
873,-0.00278854370117187,0.0000694416367088224
874,-0.00273752212524414,0.000059304435009162
875,-0.00272989273071289,0.000059386808971353
876,-0.00270843505859375,0.0000477873153599792
877,-0.00278377532958984,0.0000517263929322182
878,-0.00273275375366211,0.0000723646537968163
879,-0.00266456604003906,0.0000728609674259722
880,-0.00264120101928711,0.000081375862045257
881,-0.00261354446411133,0.0000564473294392545
882,-0.00273561477661133,0.0000457589791970573
883,-0.00264930725097656,0.0000527557340415512
884,-0.00259876251220703,0.0000557226606673872
885,-0.00261020660400391,0.0000729217947364906
886,-0.0025787353515625,0.0000597237350934761
887,-0.00261211395263672,0.0000517219970460088
888,-0.00249958038330078,0.0000836587658516316
889,-0.00250434875488281,0.0000625638699470808
890,-0.00249576568603516,0.0000592612867229395
891,-0.00232172012329102,0.000055595000289033
892,-0.00235748291015625,0.0000740342476171302
893,-0.00241947174072266,0.0000779916698465762
894,-0.00228404998779297,0.0000555438539827
895,-0.00237417221069336,0.0000548601098705092
896,-0.00230598449707031,0.0000759309837168862
897,-0.0023045539855957,0.0000527115387170238
898,-0.00219964981079102,0.0000607654079420221
899,-0.00227260589599609,0.0000670969356511607
900,-0.00227546691894531,0.0000368030567292356
