Wavelength (nm),Absorbance (AU),Std.Dev.
200,1.22107410430908,0.737050478734751
201,1.17269849777222,0.403914561084705
202,1.53220129013062,0.150346229242575
203,1.75425910949707,0.188544858901958
204,2.35385084152222,0.340096215490581
205,2.4809718132019,0.185325731702467
206,2.33182859420776,0.164289045596259
207,3.04590368270874,0.306578417256881
208,2.71094751358032,0.220473989185179
209,3.03302049636841,0.230141617671751
210,3.140700340271,0.519281542433871
211,2.9277925491333,1.10408067668309
212,3.87457466125488,0.598804044892557
213,3.01618146896362,0.624474877052962
214,3.92004919052124,0.394792224947385
215,3.07644319534302,0.221173620456288
216,3.00278234481812,0.388411698408966
217,3.48058176040649,0.334965208154262
218,3.26196384429932,0.565894165065065
219,3.1413893699646,1.39325593821631
220,3.99999952316284,1.86550329376887
221,3.764732837677,1.11767908764938
222,3.5706958770752,0.415276816093043
223,3.56036567687988,0.481642367444131
224,3.78812503814697,0.899489872789016
225,3.60379791259766,0.441380322800495
226,2.76926612854004,0.121579089761104
227,3.02630949020386,0.183016254307699
228,2.93164920806885,0.0947668245621729
229,2.61095094680786,0.0520826975465752
230,2.57466411590576,0.0598478263084197
231,2.39650440216064,0.0348651276428083
232,2.28128862380981,0.0191241758081701
233,2.12766027450562,0.0108386820952548
234,2.03296709060669,0.00790092966247177
235,1.94181680679321,0.00725920752678231
236,1.83265209197998,0.00778539246288359
237,1.74655628204346,0.00524298742248639
238,1.66071367263794,0.00384999538133394
239,1.61207342147827,0.00322347110503334
240,1.54317235946655,0.00216868139702635
241,1.50297069549561,0.00192009292143302
242,1.46379137039185,0.00228423613584131
243,1.42721652984619,0.00218648384538851
244,1.40865898132324,0.00197057084999734
245,1.39045810699463,0.00180563769984046
246,1.38057947158813,0.00161498262226274
247,1.36966705322266,0.00251121842605638
248,1.35981321334839,0.00313009799925734
249,1.36586952209473,0.00286434743372292
250,1.36073064804077,0.00271709294080583
251,1.36513710021973,0.00210720506954661
252,1.36771965026855,0.00176613480035667
253,1.36632680892944,0.00270041770088244
254,1.36557912826538,0.00306508017373667
255,1.37305450439453,0.00309509030603225
256,1.37376499176025,0.0039399599837677
257,1.35798215866089,0.00401291647529278
258,1.36363935470581,0.00317976469747573
259,1.35423469543457,0.00278522016818413
260,1.33827924728394,0.0020873889588044
261,1.32928943634033,0.00241233685613863
262,1.3040919303894,0.00317654126915918
263,1.29562282562256,0.00301236476970601
264,1.26252031326294,0.00246187215040787
265,1.23540019989014,0.00340992116390896
266,1.21567010879517,0.00264796050454615
267,1.18027639389038,0.00315949062603705
268,1.14695072174072,0.00238134902037346
269,1.11868333816528,0.00227130547734971
270,1.09703540802002,0.00209473776647599
271,1.06366968154907,0.00216878875483424
272,1.04949331283569,0.00166002020558949
273,1.02775382995605,0.00144427481335618
274,1.00993204116821,0.00184448403762959
275,0.999433994293213,0.000964356675931923
276,0.982800483703613,0.00101694420272185
277,0.977513790130615,0.00130520634841946
278,0.966487884521484,0.00157793881479431
279,0.960529804229736,0.00143684004582238
280,0.951155662536621,0.00139398872016067
281,0.942692279815674,0.00109714831617722
282,0.93487024307251,0.00100644409443156
283,0.922574043273926,0.000910554733144268
284,0.905738353729248,0.000966707813129551
285,0.891130924224854,0.00145431549773485
286,0.869596481323242,0.00125238318056987
287,0.853271484375,0.0010937210062135
288,0.839095115661621,0.00105363015757032
289,0.826793670654297,0.000886028624108688
290,0.816136837005615,0.00079861213403558
291,0.811434745788574,0.000480250539210526
292,0.807674884796143,0.000637533955365135
293,0.803266525268555,0.0010341981286412
294,0.803714752197266,0.00107118981491946
295,0.801873683929443,0.000929894567518283
296,0.804572582244873,0.000823621320927008
297,0.805482864379883,0.000978408499238884
298,0.809266567230225,0.000822949655038626
299,0.811099529266357,0.000721593119909983
300,0.814109325408936,0.00114153182385328
301,0.817596912384033,0.00135085534741408
302,0.813930034637451,0.00127559278501216
303,0.817163467407227,0.000948916967126674
304,0.816881656646729,0.000757234222456016
305,0.817775249481201,0.000992701213490244
306,0.813924789428711,0.00121357745382508
307,0.815560817718506,0.00162339460868827
308,0.812154769897461,0.000994722085744573
309,0.806864738464356,0.000639721433099877
310,0.806736469268799,0.000494352975459027
311,0.800838947296143,0.000320769316800992
312,0.793673515319824,0.000467226450769159
313,0.791131496429443,0.000536287285485534
314,0.781126499176025,0.000580498665754962
315,0.773435592651367,0.000772906995669541
316,0.766848564147949,0.000914477700298802
317,0.756052017211914,0.000821657809008624
318,0.748475074768066,0.0008807077753162
319,0.737781047821045,0.00141104615417288
320,0.72830867767334,0.000883067400178335
321,0.715590476989746,0.000551035627845517
322,0.704128742218018,0.000363778939861516
323,0.694260597229004,0.000367559493116635
324,0.682310104370117,0.000494058524914433
325,0.668479442596436,0.000599745146387007
326,0.655493259429932,0.000659810312049646
327,0.642723560333252,0.000656405102049576
328,0.628226757049561,0.000836680604517528
329,0.615898132324219,0.000684118920637878
330,0.599304676055908,0.000579055464262301
331,0.584288120269775,0.000832548392682113
332,0.57253360748291,0.000654317887523932
333,0.558924674987793,0.000678608804331993
334,0.542954921722412,0.00044553639091566
335,0.529567718505859,0.000272590750273828
336,0.514685153961182,0.000417452345564505
337,0.501645565032959,0.000468967345136015
338,0.487946033477783,0.000498164995061444
339,0.473727226257324,0.000430773749191074
340,0.459969043731689,0.000635796864673618
341,0.446516513824463,0.000432291215921267
342,0.431928157806397,0.000289244876578114
343,0.418580532073975,0.000285790591514165
344,0.406054019927979,0.000363278569703828
345,0.392709255218506,0.00041112987161613
346,0.38020133972168,0.000380352290965638
347,0.367090225219727,0.000379221969622457
348,0.354889869689941,0.000260379286904625
349,0.34252405166626,0.000269084916332273
350,0.330591678619385,0.000322787411518954
351,0.318195343017578,0.000250458915933696
352,0.3064866065979,0.000247551515861769
353,0.295791149139404,0.000284252544941126
354,0.284530162811279,0.000273117406000805
355,0.273265361785889,0.000242735874480179
356,0.262771129608154,0.000235729309354867
357,0.25243091583252,0.000347043118916912
358,0.241122722625732,0.000424898030450523
359,0.232391834259033,0.000438109303555812
360,0.223092079162598,0.000400143378375452
361,0.213265895843506,0.000466103870829135
362,0.204745769500732,0.000538777880926326
363,0.196349143981934,0.000355074349310916
364,0.188475608825684,0.000300793173014899
365,0.180399417877197,0.000300793173014899
366,0.173031330108643,0.000323766461122119
367,0.167256355285645,0.000236391991121384
368,0.161167144775391,0.00022717074716609
369,0.154272556304932,0.000185895563929224
370,0.147300720214844,0.00027358321581761
371,0.141978740692139,0.000223086418414512
372,0.135534763336182,0.000198121105233935
373,0.129459857940674,0.000188379044147103
374,0.123050212860107,0.000147899483002277
375,0.11813497543335,0.000203532957224017
376,0.11247444152832,0.000196577238989991
377,0.106996536254883,0.00024259720145073
378,0.102096080780029,0.000192424916002527
379,0.0973801612854004,0.000198986837093277
380,0.0925025939941406,0.000287516595057651
381,0.0878448486328125,0.000253433454459359
382,0.0837597846984863,0.000226235991471236
383,0.0795793533325195,0.000258352466939473
384,0.0754480361938477,0.000203952567231419
385,0.0717225074768066,0.000185278082955641
386,0.0678572654724121,0.000263814655693105
387,0.0644350051879883,0.00022471529728044
388,0.0613107681274414,0.000230323700397965
389,0.0576133728027344,0.000256848413831585
390,0.0545616149902344,0.000176746496475875
391,0.0518255233764648,0.000145890352699862
392,0.0486893653869629,0.00013901418425208
393,0.0463433265686035,0.00017009925028495
394,0.0431122779846191,0.000156230948635282
395,0.0411100387573242,0.000157555540652147
396,0.0384364128112793,0.000204571477013242
397,0.036651611328125,0.00027726184406199
398,0.0341105461120605,0.000231493513554623
399,0.0321540832519531,0.000203729478009711
400,0.0296459197998047,0.000201543673605952
401,0.028052806854248,0.000150202947947699
402,0.0260171890258789,0.000211294287477512
403,0.0242595672607422,0.000185435098308359
404,0.0228333473205566,0.000153831539826623
405,0.021510124206543,0.000204451403745447
406,0.0194740295410156,0.000195807708346581
407,0.0179400444030762,0.000232332758237454
408,0.0171175003051758,0.000314238219764704
409,0.0153532028198242,0.000246881949388801
410,0.0141749382019043,0.000176246651157838
411,0.0130987167358398,0.00013614515056414
412,0.0122666358947754,0.00017197104179934
413,0.0111784934997559,0.000236238044967762
414,0.00970172882080078,0.00025275787986003
415,0.00906085968017578,0.000181699360687806
416,0.00823831558227539,0.000144153164884119
417,0.00736236572265625,0.000144030082457585
418,0.00664615631103516,0.000162771281734055
419,0.00579929351806641,0.00015315902633579
420,0.00522422790527344,0.000135368014136726
421,0.00474405288696289,0.000185778106737255
422,0.00425243377685547,0.000137861201151553
423,0.00340652465820312,0.000141741800334848
424,0.00241518020629883,0.00016004121279011
425,0.00204038619995117,0.000184717631079746
426,0.00136375427246094,0.000253842235711885
427,0.00206136703491211,0.000171231685723629
428,0.000849246978759766,0.000126795653881511
429,0.000354766845703125,0.000169898625200056
430,0.000689983367919922,0.000140060312803236
431,-0.0000505447387695313,0.000141536321491165
432,-0.000606536865234375,0.000222474047184122
433,-0.00052642822265625,0.000198029271955045
434,-0.000644683837890625,0.000186749789381902
435,-0.00168132781982422,0.000194540210573997
436,-0.00125741958618164,0.000166895730132612
437,-0.00172567367553711,0.000238788318041214
438,-0.00201940536499023,0.000198176184774959
439,-0.00204706192016602,0.00014551582610382
440,-0.00258398056030273,0.000156727894471543
441,-0.00200796127319336,0.000133694799352643
442,-0.00265121459960937,0.000108697956147906
443,-0.00274372100830078,0.000143812063187746
444,-0.00270366668701172,0.000169316811021778
445,-0.00314617156982422,0.000148748738161814
446,-0.00312137603759766,0.00015065639640402
447,-0.00329875946044922,0.000164034754707507
448,-0.00370216369628906,0.000149032782004486
449,-0.00345230102539062,0.000141812364924935
450,-0.00367164611816406,0.000128480850079608
451,-0.0039067268371582,0.000112890630738752
452,-0.00412654876708984,0.0000835227617854786
453,-0.00409317016601563,0.0000966039602443503
454,-0.00431203842163086,0.0000976573675806947
455,-0.00410079956054688,0.000121382923711375
456,-0.00447225570678711,0.000174008326270395
457,-0.0044708251953125,0.000159870635543939
458,-0.00439834594726563,0.000131150157452935
459,-0.00484657287597656,0.0000835744694026869
460,-0.00497102737426758,0.0000949013766196593
461,-0.00475883483886719,0.000107959133949935
462,-0.00510644912719727,0.000102685085698968
463,-0.00494623184204102,0.0000931213038678797
464,-0.00483560562133789,0.0000876654449026596
465,-0.00492191314697266,0.000127328914837928
466,-0.00517559051513672,0.0000966110209911099
467,-0.00539159774780273,0.0000694678262766812
468,-0.00511503219604492,0.0000933164348982798
469,-0.00536775588989258,0.000133823989525835
470,-0.00570964813232422,0.000112448676465084
471,-0.00551557540893555,0.0000983903532144846
472,-0.00549936294555664,0.0001252476132155
473,-0.00548887252807617,0.0000888965660962502
474,-0.00566625595092773,0.000099885719091615
475,-0.00554609298706055,0.0000902596188288595
476,-0.0057225227355957,0.0000989434230754313
477,-0.00583791732788086,0.0000879632092146097
478,-0.00558233261108398,0.000103981118548882
479,-0.00581026077270508,0.000111097941464999
480,-0.00567340850830078,0.0000931676844926439
481,-0.00606632232666016,0.0000906166260404617
482,-0.00593757629394531,0.0000786463355349901
483,-0.00576305389404297,0.0000701274926556031
484,-0.0061187744140625,0.0000838026891777055
485,-0.00485897064208984,0.0000796103876972387
486,-0.00521612167358398,0.0000832978695995622
487,-0.00643253326416016,0.000098073244152519
488,-0.00612068176269531,0.0000863404500977486
489,-0.00595712661743164,0.0000782042014349105
490,-0.00594425201416016,0.000111996857900127
491,-0.00587987899780273,0.0000995459668854893
492,-0.00601911544799805,0.000087857165524201
493,-0.00603532791137695,0.0000854709823174837
494,-0.00600957870483398,0.0000890294688625686
495,-0.00594472885131836,0.0000925383561802511
496,-0.00579643249511719,0.000114985995786548
497,-0.00590610504150391,0.000105973773064339
498,-0.0057835578918457,0.0000941146582662156
499,-0.00572872161865234,0.0000951765056600544
500,-0.0058598518371582,0.0000954246349437637
501,-0.00560998916625977,0.0000783552422261469
502,-0.00575017929077148,0.0000862271371842629
503,-0.00565910339355469,0.0000594222137991818
504,-0.005645751953125,0.0000798328511495975
505,-0.00557708740234375,0.0000922134519157915
506,-0.00544309616088867,0.0000877328539436869
507,-0.00542020797729492,0.0000738897604187677
508,-0.00530529022216797,0.0000916048735925547
509,-0.00538396835327148,0.0000810581093986473
510,-0.00514364242553711,0.000103494536584207
511,-0.00498247146606445,0.0000901108689195077
512,-0.00504493713378906,0.00010831238229385
513,-0.00506401062011719,0.0000873041828792185
514,-0.00490522384643555,0.0000579764179997118
515,-0.0048670768737793,0.0000971414549934528
516,-0.0048222541809082,0.000108808764722007
517,-0.00471162796020508,0.0000881284857795136
518,-0.004547119140625,0.0000702845678131385
519,-0.00441455841064453,0.000104617681302614
520,-0.00464868545532227,0.0000666651772682966
521,-0.00436782836914063,0.0000938436849088273
522,-0.00428533554077148,0.000106387061319567
523,-0.00430727005004883,0.000102853233413791
524,-0.0041651725769043,0.000113897224192419
525,-0.00410890579223633,0.0000892080637639508
526,-0.00406503677368164,0.0000919393482589342
527,-0.00389671325683594,0.0000792152680667201
528,-0.00386810302734375,0.0000738728338722227
529,-0.00379467010498047,0.0000976014728698786
530,-0.00369787216186523,0.0000708933545686562
531,-0.00354146957397461,0.0000765483310716016
532,-0.00357770919799805,0.0000650266733134779
533,-0.00351333618164062,0.000060795335192492
534,-0.00351190567016602,0.0000908346626265767
535,-0.00340938568115234,0.0000810061989806439
536,-0.00344324111938477,0.0000814345173619719
537,-0.00344038009643555,0.0000924965764749049
538,-0.00318622589111328,0.000076784109060684
539,-0.00313854217529297,0.0000736940990715105
540,-0.00317096710205078,0.0000842397317812876
541,-0.00312042236328125,0.0000695005493583757
542,-0.00304889678955078,0.0000895870302878447
543,-0.00323343276977539,0.0000963871795344716
544,-0.00302362442016602,0.0000808516738787325
545,-0.00301027297973633,0.0000721191571343144
546,-0.00297355651855469,0.0000768137154273368
547,-0.00302791595458984,0.0000655820131185692
548,-0.00283336639404297,0.0000841789795328283
549,-0.00285100936889648,0.0000794731775913238
550,-0.00288820266723633,0.0000491281137927145
551,-0.00278139114379883,0.0000496414735322568
552,-0.00270223617553711,0.0000596389671687771
553,-0.00278425216674805,0.0000603439260590771
554,-0.00274324417114258,0.000103876104768296
555,-0.00265932083129883,0.0000970876052293733
556,-0.00260019302368164,0.0000538097581292821
557,-0.00265741348266602,0.0000607495030935982
558,-0.00263309478759766,0.0000559273275441874
559,-0.0027008056640625,0.0000583400081222975
560,-0.00250005722045898,0.0000693548131278686
561,-0.0025634765625,0.0000622523648085311
562,-0.00266218185424805,0.0000743621394715039
563,-0.00262069702148437,0.0000638160630316829
564,-0.00256776809692383,0.0000672222018812148
565,-0.00257444381713867,0.0000938582211709373
566,-0.00258636474609375,0.00009726543007586
567,-0.00227975845336914,0.0000584169308325057
568,-0.00239753723144531,0.0000689701722772088
569,-0.00226116180419922,0.0000917586355699718
570,-0.00225353240966797,0.00006868607130832
571,-0.00221681594848633,0.0000606624204117425
572,-0.00226068496704102,0.0000664242890212302
573,-0.00224971771240234,0.0000795217999131507
574,-0.00202083587646484,0.0000618970631873473
575,-0.00242233276367187,0.0000659743455368054
576,-0.00215482711791992,0.0000629713974732177
577,-0.00218915939331055,0.0000733306717835889
578,-0.00190448760986328,0.000064066758846544
579,-0.00256252288818359,0.0000677360568439659
580,-0.0019688606262207,0.0000545296180126807
581,-0.00211715698242187,0.0000643394523999038
582,-0.00175285339355469,0.0000718348492319999
583,-0.00299167633056641,0.0000645035726679981
584,-0.00207233428955078,0.0000583400081222975
585,-0.00181341171264648,0.0000556655050182819
586,-0.00242471694946289,0.0000540668998402527
587,-0.00202655792236328,0.0000561180816825244
588,-0.00210189819335937,0.0000561514982647062
589,-0.00238704681396484,0.0000512072935434892
590,-0.00220394134521484,0.0000637287108826705
591,-0.00226116180419922,0.0000404068499135851
592,-0.00196361541748047,0.0000442187734110081
593,-0.00182294845581055,0.0000467361232147619
594,-0.00228023529052734,0.0000472814760446188
595,-0.00212192535400391,0.0000526608301543318
596,-0.00230169296264648,0.0000731754744206562
597,-0.00228595733642578,0.0000869466500857657
598,-0.00216579437255859,0.0000760043130243985
599,-0.00193548202514648,0.0000493808564353732
600,-0.00235748291015625,0.0000683525733459065
601,-0.0021519660949707,0.0000636787415693385
602,-0.00221824645996094,0.0000548124261501819
603,-0.00203752517700195,0.0000486023159343229
604,-0.00219202041625977,0.000054519192696074
605,-0.00218534469604492,0.0000622596692808131
606,-0.00209760665893555,0.0000566814787564057
607,-0.00210189819335937,0.0000748603965969279
608,-0.00206613540649414,0.0000669255857841844
609,-0.00208091735839844,0.0000582463956935403
610,-0.00197076797485352,0.0000566393431002564
611,-0.00215578079223633,0.000046513014542624
612,-0.00208711624145508,0.0000558713986773209
613,-0.00204229354858398,0.0000572969005521861
614,-0.00206661224365234,0.0000527805103379124
615,-0.00206279754638672,0.000049721564467485
616,-0.00223398208618164,0.0000672661589606566
617,-0.00222635269165039,0.0000557002136568874
618,-0.00222539901733398,0.0000575601903377765
619,-0.0022735595703125,0.0000664790352636837
620,-0.00220584869384766,0.000070489693781864
621,-0.00234794616699219,0.0000466362830042472
622,-0.00214672088623047,0.0000509212077110767
623,-0.00227642059326172,0.0000623891813531216
624,-0.00226783752441406,0.000078626095296829
625,-0.0022435188293457,0.000059963102126404
626,-0.00234031677246094,0.0000648042574638156
627,-0.00205898284912109,0.0000566393431002564
628,-0.00196743011474609,0.0000533503858392644
629,-0.00198936462402344,0.0000597950754355643
630,-0.0018768310546875,0.0000586655063759487
631,-0.00204706192016602,0.0000635894129874025
632,-0.00207996368408203,0.0000652291621023082
633,-0.00217151641845703,0.0000689355482807205
634,-0.00223731994628906,0.0000558876746659197
635,-0.00223207473754883,0.0000601438924798386
636,-0.00216865539550781,0.0000476837158203125
637,-0.00221681594848633,0.0000628231824913672
638,-0.00221109390258789,0.0000804485195501829
639,-0.00217247009277344,0.0000639850795110144
640,-0.00219154357910156,0.0000882110079356216
641,-0.00219345092773437,0.0000665764404957968
642,-0.00218820571899414,0.0000632811596915401
643,-0.00214433670043945,0.0000565589978678091
644,-0.00218677520751953,0.000064256350443934
645,-0.0021204948425293,0.000078686800392408
646,-0.00221967697143555,0.0000857896176726647
647,-0.00213813781738281,0.0000855135356299211
648,-0.00220727920532227,0.0000552997490760469
649,-0.00204610824584961,0.0000641217449313411
650,-0.00217151641845703,0.000061382482645864
651,-0.00228691101074219,0.0000824266510051162
652,-0.00208711624145508,0.0000761821046288989
653,-0.00214099884033203,0.0000674113512504269
654,-0.0021357536315918,0.0000839138567508457
655,-0.00225257873535156,0.0000675309840618727
656,0.00149202346801758,0.0000387032010797558
657,-0.00505590438842773,0.0000415710671044933
658,-0.00271511077880859,0.0000682776864547459
659,-0.00215339660644531,0.0000501733758847234
660,-0.00207662582397461,0.0000889195827130501
661,-0.00213956832885742,0.0000762760618231003
662,-0.00213909149169922,0.0000640490113299713
663,-0.00214862823486328,0.0000659053815859681
664,-0.00218486785888672,0.0000723143634523522
665,-0.00220298767089844,0.000071058336671835
666,-0.00205850601196289,0.0000666174106169026
667,-0.00224065780639648,0.0000565167708970225
668,-0.00211954116821289,0.0000638748247132887
669,-0.00225734710693359,0.0000555684100848388
670,-0.0021052360534668,0.0000469908443110671
671,-0.00211334228515625,0.0000548880788479869
672,-0.00205850601196289,0.0000498699635251328
673,-0.00214099884033203,0.0000659191801480844
674,-0.00219964981079102,0.0000576144798448771
675,-0.00212955474853516,0.0000493808564353732
676,-0.00209951400756836,0.000052638157347605
677,-0.00209760665893555,0.000059796976679597
678,-0.00209188461303711,0.0000407577240874445
679,-0.00208950042724609,0.0000476455535766479
680,-0.002044677734375,0.0000576223722394134
681,-0.00204133987426758,0.0000660174114222595
682,-0.00198793411254883,0.000053652126995221
683,-0.00207042694091797,0.0000575305562861112
684,-0.00203561782836914,0.0000548590737086092
685,-0.00196981430053711,0.0000421083930413544
686,-0.0019230842590332,0.0000545317028368298
687,-0.00198936462402344,0.0000557930040744856
688,-0.00200366973876953,0.0000429107080710416
689,-0.0019383430480957,0.0000414066564658352
690,-0.00186729431152344,0.0000402927398681641
691,-0.00193452835083008,0.0000591585633059342
692,-0.00196266174316406,0.0000547127784347301
693,-0.00190162658691406,0.0000591095388554033
694,-0.00192737579345703,0.0000674888840215841
695,-0.0019831657409668,0.0000700025531902411
696,-0.00194835662841797,0.0000492875273110296
697,-0.00198078155517578,0.0000497627038981227
698,-0.00187921524047852,0.000059663743284672
699,-0.00198030471801758,0.0000456021889343461
700,-0.00204992294311523,0.0000592545719433901
701,-0.00201177597045898,0.000069734071992853
702,-0.00199222564697266,0.0000608420670511246
703,-0.0020904541015625,0.000057279040231206
704,-0.00221395492553711,0.0000562677949071161
705,-0.0020747184753418,0.000057437603918022
706,-0.00214385986328125,0.0000593111441435753
707,-0.00216102600097656,0.0000599242226171935
708,-0.00216293334960937,0.0000578998918024465
709,-0.0022740364074707,0.0000514144566314088
710,-0.0022282600402832,0.0000511750915363632
711,-0.00221014022827148,0.0000572810249863213
712,-0.00218057632446289,0.0000559212289314934
713,-0.00217103958129883,0.0000440384350845151
714,-0.00218820571899414,0.0000482383892194385
715,-0.00224876403808594,0.000045332143989182
716,-0.00220727920532227,0.0000461067259578958
717,-0.00210285186767578,0.0000676302362498909
718,-0.00206995010375977,0.0000669850140792457
719,-0.00200557708740234,0.0000519927459107959
720,-0.0019841194152832,0.0000628919109107878
721,-0.00198459625244141,0.0000551432847093829
722,-0.00199460983276367,0.0000552205429289606
723,-0.00189828872680664,0.0000585995813413493
724,-0.00185871124267578,0.000047443500082206
725,-0.00181388854980469,0.0000367056223736756
726,-0.00193643569946289,0.0000605085498820179
727,-0.00181436538696289,0.0000653562687649514
728,-0.00177145004272461,0.0000615674146226242
729,-0.00183629989624023,0.0000442226297554458
730,-0.0018467903137207,0.0000513314702485122
731,-0.00178909301757812,0.0000378605400570699
732,-0.00183868408203125,0.0000415717507885481
733,-0.00186252593994141,0.000049394667974829
734,-0.00189733505249023,0.0000452731708330995
735,-0.00183248519897461,0.0000420286716551881
736,-0.00184154510498047,0.0000560471320683402
737,-0.00178718566894531,0.0000495107624153929
738,-0.0019230842590332,0.0000492955997661002
739,-0.00185060501098633,0.0000450693102850722
740,-0.0019984245300293,0.0000464077951835496
741,-0.0020136833190918,0.0000571279970808922
742,-0.00206184387207031,0.0000629280536129899
743,-0.00201034545898437,0.0000525170703974089
744,-0.00203466415405273,0.0000656357298170967
745,-0.00209426879882812,0.0000447160385303504
746,-0.00208950042724609,0.0000349923432436392
747,-0.0019993782043457,0.000048030545604303
748,-0.00205755233764648,0.0000503599640179956
749,-0.00197553634643555,0.0000410993799815492
750,-0.00194454193115234,0.0000333436715059776
751,-0.00198173522949219,0.0000479393306643143
752,-0.00202178955078125,0.0000567346052811872
753,-0.00194358825683594,0.0000543018923241682
754,-0.00191783905029297,0.0000439751419513876
755,-0.00192165374755859,0.0000390548263124042
756,-0.00188159942626953,0.0000486105021784777
757,-0.00185537338256836,0.0000477599488279301
758,-0.00182485580444336,0.000053897366145877
759,-0.00182628631591797,0.0000522990595397696
760,-0.00179719924926758,0.000073508743676575
761,-0.00184392929077148,0.0000645564256848147
762,-0.00180768966674805,0.0000447401849768694
763,-0.0017848014831543,0.0000456980691288851
764,-0.0016636848449707,0.000050266191106577
765,-0.00164890289306641,0.0000537981367216087
766,-0.0018162727355957,0.0000424016567500433
767,-0.00179052352905273,0.0000382741655358008
768,-0.00174283981323242,0.0000561514982647062
769,-0.0016779899597168,0.0000508407704744791
770,-0.00179815292358398,0.0000514630796937257
771,-0.00175619125366211,0.0000557573337269216
772,-0.00182151794433594,0.0000566574050756611
773,-0.00186014175415039,0.000044728748811307
774,-0.00183725357055664,0.0000596294351522909
775,-0.00188016891479492,0.0000538731034951128
776,-0.00191736221313477,0.0000476741781232833
777,-0.00191974639892578,0.0000399676588859846
778,-0.0019073486328125,0.0000474890071477989
779,-0.00187349319458008,0.0000369787139326883
780,-0.00195646286010742,0.0000315605327695516
781,-0.00194740295410156,0.0000481416646346267
782,-0.00194549560546875,0.0000403582869314047
783,-0.00201892852783203,0.000045333397903683
784,-0.00191354751586914,0.0000461116571585471
785,-0.00198173522949219,0.0000571130698519052
786,-0.00199985504150391,0.0000531400730350196
787,-0.00202131271362305,0.0000454986112763116
788,-0.0020289421081543,0.0000504929799352837
789,-0.00195980072021484,0.0000390446366410037
790,-0.0020604133605957,0.0000409615331074713
791,-0.00198078155517578,0.0000583896786806842
792,-0.00200700759887695,0.0000448442468155913
793,-0.00204658508300781,0.0000354113798103014
794,-0.00197553634643555,0.0000378395147654524
795,-0.0019068717956543,0.0000383394570686862
796,-0.00203752517700195,0.0000431754916372858
797,-0.00205707550048828,0.000047252613608694
798,-0.00195932388305664,0.0000466118992929682
799,-0.00189399719238281,0.0000537833422073117
800,-0.00190973281860352,0.0000760925137261341
801,-0.00195837020874023,0.0000521041426835927
802,-0.00191545486450195,0.0000536531864659411
803,-0.00194025039672852,0.0000511295299548956
804,-0.00190114974975586,0.0000574385935646173
805,-0.00190496444702148,0.0000472369724258674
806,-0.00188636779785156,0.0000567796736879457
807,-0.00183677673339844,0.0000532458670612252
808,-0.00191307067871094,0.0000493175040550133
809,-0.00190353393554687,0.0000460413376886169
810,-0.00185537338256836,0.0000593456362825267
811,-0.00189352035522461,0.000079557532662302
812,-0.00197267532348633,0.0000561838832422465
813,-0.00201892852783203,0.0000353929148479696
814,-0.00194215774536133,0.0000445045175997448
815,-0.0020294189453125,0.0000489774670223573
816,-0.00194501876831055,0.0000380746334349681
817,-0.0020146369934082,0.0000456171445583397
818,-0.00197219848632812,0.0000505593566629416
819,-0.00198888778686523,0.0000677159132897405
820,-0.00195932388305664,0.0000542547657103787
821,-0.00195980072021484,0.0000561292227537619
822,-0.0019683837890625,0.0000539500733952125
823,-0.00200700759887695,0.0000689948930652081
824,-0.00201129913330078,0.0000559689836121884
825,-0.00198602676391602,0.0000672086708420517
826,-0.00203466415405273,0.000058477229686678
827,-0.00199699401855469,0.0000512572221228048
828,-0.00199651718139648,0.000055411678490959
829,-0.00188827514648437,0.000054219131769197
830,-0.00208616256713867,0.0000612137090144394
831,-0.001983642578125,0.0000395932798002813
832,-0.0019688606262207,0.0000394926540853214
833,-0.00189399719238281,0.0000560278588129982
834,-0.00185441970825195,0.0000448632564023555
835,-0.00191926956176758,0.0000400316083179767
836,-0.00182104110717773,0.0000355139659526166
837,-0.00191259384155273,0.0000448784582742784
838,-0.00181961059570312,0.000051353613063039
839,-0.00177860260009766,0.0000483055104955549
840,-0.00175952911376953,0.0000616117157002202
841,-0.00172519683837891,0.0000582356596603278
842,-0.00174140930175781,0.00007381741076465
843,-0.00173330307006836,0.0000437106508158993
844,-0.00159358978271484,0.000063508909837026
845,-0.00161170959472656,0.0000725262890799173
846,-0.00158786773681641,0.0000686844161225542
847,-0.00150299072265625,0.0000601476728558742
848,-0.00160408020019531,0.0000639139691539581
849,-0.00153493881225586,0.0000550783040567119
850,-0.00162124633789062,0.0000716161154836884
851,-0.00151681900024414,0.0000516956138789552
852,-0.00154495239257812,0.0000472309552070837
853,-0.00152826309204102,0.0000483455033764124
854,-0.00156545639038086,0.0000423399445041358
855,-0.00157070159912109,0.0000393202765706845
856,-0.00166702270507812,0.0000485800891751243
857,-0.00160598754882812,0.0000463501906406584
858,-0.00160360336303711,0.0000633422124406092
859,-0.00165033340454102,0.0000529450314732354
860,-0.00171947479248047,0.0000428649818763144
861,-0.00164651870727539,0.0000611282175614018
862,-0.00171852111816406,0.000052037551707312
863,-0.00178384780883789,0.0000590662481964189
864,-0.00165367126464844,0.0000454260915277228
865,-0.00170660018920898,0.0000556726526833814
866,-0.0017857551574707,0.0000615877232388404
867,-0.00177097320556641,0.0000676722483526455
868,-0.00172710418701172,0.000055367549875025
869,-0.0018305778503418,0.0000601202597439776
870,-0.00187397003173828,0.0000643800802240466
871,-0.00189065933227539,0.0000547605489251438
872,-0.00186538696289062,0.0000615119934082031
873,-0.00185251235961914,0.0000663198038128422
874,-0.00180864334106445,0.0000562111935542813
875,-0.00184726715087891,0.0000644400918265931
876,-0.00178050994873047,0.000046064789439158
877,-0.00190305709838867,0.0000491477796148633
878,-0.00186967849731445,0.0000705847857283147
879,-0.00182628631591797,0.000073442210811388
880,-0.0017552375793457,0.0000687142033662194
881,-0.00179290771484375,0.0000585122134087104
882,-0.00183629989624023,0.000055082432091498
883,-0.00172185897827148,0.0000677075183734159
884,-0.00172233581542969,0.0000619796599427055
885,-0.00170660018920898,0.0000808024448290546
886,-0.00168609619140625,0.0000734607841842821
887,-0.0017094612121582,0.000067115571100944
888,-0.00166702270507812,0.0000839368852607957
889,-0.00167131423950195,0.0000495750144514946
890,-0.00160598754882812,0.0000498505826019797
891,-0.00148773193359375,0.0000512527859964281
892,-0.00161123275756836,0.0000770811359089051
893,-0.00150823593139648,0.0000772505630120782
894,-0.00152063369750977,0.00006192644354414
895,-0.00141191482543945,0.0000485718978052019
896,-0.00148200988769531,0.0000593858517911653
897,-0.00140810012817383,0.0000611319370671743
898,-0.00136089324951172,0.0000688414810798205
899,-0.00135707855224609,0.0000649637036344283
900,-0.00144195556640625,0.0000572035685088026
