Wavelength (nm),Absorbance (AU),Std.Dev.
200,1.22853899002075,0.370836670821241
201,1.37862968444824,0.231096866527329
202,1.72341156005859,0.334070027394145
203,1.92784309387207,0.214945820923825
204,2.23689126968384,0.216043348413124
205,2.33203458786011,0.138878037770556
206,2.2567925453186,0.155420773258448
207,3.01974439620972,0.418105628872096
208,3.44797086715698,0.628347966490055
209,3.2091121673584,0.558183853105039
210,3.09232234954834,1.19839777476533
211,3.89412689208984,0.638979403216078
212,3.35953044891357,0.267021547055283
213,3.00499534606934,0.73362661334803
214,3.51505374908447,1.27939080046423
215,3.8444037437439,0.631049821292364
216,3.24087285995483,0.285657468323488
217,3.26385641098022,0.659670679410141
218,3.4414849281311,1.24633251043311
219,3.72780418395996,0.588017142740116
220,2.7729868888855,0.499106562609473
221,3.37395000457764,0.962016670447425
222,3.69861030578613,0.459760812687219
223,2.78300380706787,0.11349992363881
224,2.97561407089233,0.160382367054827
225,3.06021928787231,0.116757430238376
226,2.68525552749634,0.0617004753774572
227,2.63944816589356,0.04606694880913
228,2.52360916137695,0.0403859071909223
229,2.39998149871826,0.0323244400247336
230,2.36337947845459,0.0217340012387266
231,2.21495342254639,0.0176804004345076
232,2.09950304031372,0.0127740035092068
233,2.00185060501099,0.00839804714981293
234,1.90642738342285,0.00721997140897231
235,1.8127498626709,0.00443566463016836
236,1.72396087646484,0.00375942625025112
237,1.6436939239502,0.00278831146984874
238,1.56554317474365,0.00285506581961292
239,1.51183938980103,0.00235109172747184
240,1.44899654388428,0.00120640969553479
241,1.41110754013062,0.00116027013303225
242,1.37646436691284,0.00158202812995132
243,1.34780025482178,0.00172495194442472
244,1.32597255706787,0.0022158367749843
245,1.3141188621521,0.00169650700014097
246,1.29918241500854,0.00104517136028646
247,1.29203653335571,0.00183841497580921
248,1.29023885726929,0.00165949415580109
249,1.28864431381226,0.00179188475949451
250,1.28639698028564,0.0022722278765618
251,1.28855228424072,0.0028187902627425
252,1.29039764404297,0.00171204701248493
253,1.29589414596558,0.00179904940939165
254,1.294020652771,0.00215029852632656
255,1.29951858520508,0.00223690933271005
256,1.29773473739624,0.00227647632679275
257,1.28916931152344,0.0029682168983857
258,1.2944769859314,0.00221068206902185
259,1.28367805480957,0.00204336779181939
260,1.26607704162598,0.00220530417054928
261,1.25059223175049,0.00223315909787508
262,1.23164892196655,0.0027690393201992
263,1.21294546127319,0.00329582779420097
264,1.18626976013184,0.00288443585824462
265,1.1638650894165,0.00293746551534012
266,1.1418662071228,0.00283460500114126
267,1.10956287384033,0.002793150409046
268,1.07847213745117,0.0018412307261509
269,1.0537543296814,0.0015971513803869
270,1.02923345565796,0.00209679303797872
271,1.00136184692383,0.00153553766749069
272,0.985440731048584,0.00167064578555742
273,0.966666698455811,0.00109342825789469
274,0.951601505279541,0.000974309826496317
275,0.941742420196533,0.00081087220798257
276,0.926932811737061,0.000715944594227789
277,0.916789054870606,0.000964311405575553
278,0.909774780273438,0.00118164519632259
279,0.903177261352539,0.000749488513351217
280,0.894836902618408,0.000776194817223643
281,0.889474868774414,0.000688011083096446
282,0.881327152252197,0.000856805123374418
283,0.868495941162109,0.00122210898506584
284,0.854773998260498,0.00140972549062135
285,0.839405059814453,0.000911912138114332
286,0.823485851287842,0.000558407055393684
287,0.807612419128418,0.000673820678697437
288,0.793173789978027,0.000712562577005119
289,0.782706260681152,0.000650962188955736
290,0.77311372756958,0.000537845259182141
291,0.768390655517578,0.000441838453222618
292,0.763054847717285,0.000705275525121945
293,0.760831832885742,0.000869332597726557
294,0.761251926422119,0.000838591590302489
295,0.759459018707275,0.000920204296413936
296,0.760967254638672,0.00083202386458795
297,0.763370513916016,0.000568492291334544
298,0.766129970550537,0.000609492651268044
299,0.767022132873535,0.000915908734036799
300,0.767518997192383,0.000698537630652492
301,0.771285057067871,0.00092570685639033
302,0.77152681350708,0.00126104452584194
303,0.76946496963501,0.000888243063497596
304,0.770874977111816,0.000746102516512272
305,0.772096157073975,0.000960985766919894
306,0.769628047943115,0.000981704763024138
307,0.767828941345215,0.000872623985500044
308,0.762712955474854,0.00106983047093524
309,0.761260509490967,0.000941743609220708
310,0.756698608398438,0.000817538663574323
311,0.753307342529297,0.000775407011449898
312,0.74746036529541,0.000810943988818189
313,0.742694854736328,0.000709841261619407
314,0.736226558685303,0.000928908157667506
315,0.727372169494629,0.000925659695826008
316,0.721096515655518,0.000618063367835255
317,0.711884021759033,0.000938306972768854
318,0.701989650726318,0.00110317984679687
319,0.693952083587647,0.000546647582281778
320,0.68418550491333,0.000473222382658869
321,0.67170524597168,0.000888767158723931
322,0.660866737365723,0.000693331066413348
323,0.649845600128174,0.000496467864154446
324,0.638628959655762,0.000450473592854871
325,0.624241352081299,0.00078058810805839
326,0.611462116241455,0.000782673254591807
327,0.598371505737305,0.000736602139017317
328,0.586121559143066,0.000741544181185131
329,0.573233604431152,0.000663691550317363
330,0.559501171112061,0.000753844409343322
331,0.544830799102783,0.00050504056284898
332,0.532987117767334,0.000502817039466291
333,0.519693851470947,0.000478763503955367
334,0.505112648010254,0.0006083335895482
335,0.49278450012207,0.000468385176946131
336,0.477869987487793,0.000373635917362527
337,0.464954853057861,0.000541700443584845
338,0.451613903045654,0.00055784649067519
339,0.438545703887939,0.000417635314511602
340,0.426119804382324,0.000550943191035613
341,0.412843704223633,0.000303885593668433
342,0.399380683898926,0.000231237999702977
343,0.386400699615479,0.000270950940812374
344,0.374312877655029,0.000334558954382917
345,0.361776828765869,0.000375064480473188
346,0.34971809387207,0.000323856340077594
347,0.337616443634033,0.000403655539800984
348,0.325940132141113,0.000301198070233602
349,0.314279079437256,0.000296873162445856
350,0.302602291107178,0.000377250223238407
351,0.291269302368164,0.000277058392454795
352,0.280034065246582,0.000245729876572036
353,0.269935131072998,0.000281726434035431
354,0.259248733520508,0.000236999100825494
355,0.248712539672852,0.000205339169118298
356,0.23908519744873,0.000248175303372561
357,0.229431629180908,0.000329993363013071
358,0.219118118286133,0.000317193855377005
359,0.210156917572021,0.000314134008255016
360,0.201984405517578,0.000353986641035318
361,0.192813873291016,0.000422123443996365
362,0.184051036834717,0.000463497491380892
363,0.176638126373291,0.000351666676795337
364,0.169242858886719,0.00036610164600951
365,0.161873817443848,0.00036610164600951
366,0.154790878295898,0.000340385588778751
367,0.149458885192871,0.00022383936901419
368,0.143928527832031,0.000208420934519732
369,0.137109279632568,0.00018567527074278
370,0.130934238433838,0.000257788593365076
371,0.12537670135498,0.00023758169159561
372,0.119389057159424,0.000252203135315942
373,0.114037036895752,0.000262258703052684
374,0.109185695648193,0.000199775990807703
375,0.103013515472412,0.000256068213605322
376,0.0986137390136719,0.000218260196759424
377,0.0938796997070313,0.00028034780924489
378,0.0892643928527832,0.000202111466857844
379,0.0844411849975586,0.000173427188720889
380,0.0798931121826172,0.000220791566901974
381,0.0761547088623047,0.000264420715325966
382,0.0720467567443848,0.000205671093203345
383,0.0679688453674316,0.000235517011852068
384,0.0641012191772461,0.000260679508472887
385,0.060814380645752,0.000211595380807043
386,0.057286262512207,0.000202637278889261
387,0.0542612075805664,0.000190925502872348
388,0.0512156486511231,0.000208119618674535
389,0.0479459762573242,0.000277504478141376
390,0.0454120635986328,0.000185924916632993
391,0.0425043106079102,0.000178161065027899
392,0.0399661064147949,0.000207213042231178
393,0.0374326705932617,0.000220197596582974
394,0.0347685813903809,0.000156018320072518
395,0.0329442024230957,0.000193983076043126
396,0.0303835868835449,0.0001904580969282
397,0.0285043716430664,0.000257837981532578
398,0.0267252922058105,0.000182956396455688
399,0.0249466896057129,0.000158450627144362
400,0.0224924087524414,0.000222915124040667
401,0.0211005210876465,0.000178757340694278
402,0.0191726684570312,0.00019520760491047
403,0.0176739692687988,0.000152501439399881
404,0.0166049003601074,0.000136871369786083
405,0.0149235725402832,0.0002074893761211
406,0.0131936073303223,0.000195468341225582
407,0.011909008026123,0.000228009947464456
408,0.0112738609313965,0.000324580079910288
409,0.00971794128417969,0.000200103507566097
410,0.00826883316040039,0.00023020915766387
411,0.0078434944152832,0.000223367545426499
412,0.00683450698852539,0.000180569612777343
413,0.00556230545043945,0.000251936135255205
414,0.00450897216796875,0.000223859683881865
415,0.00422811508178711,0.000198446770159577
416,0.00317096710205078,0.000214985352418942
417,0.00228548049926758,0.000216956190959272
418,0.00204896926879883,0.000149489779975966
419,0.00141143798828125,0.0001153551775242
420,0.000696659088134766,0.000120312355666686
421,0.000214576721191406,0.000195510212843505
422,-0.000483512878417969,0.000221597468257478
423,-0.00109767913818359,0.000153280711868454
424,-0.00174236297607422,0.000175029767566889
425,-0.00237321853637695,0.000248563460872347
426,-0.00277423858642578,0.000206170183057734
427,-0.00203561782836914,0.000177147410903951
428,-0.00315952301025391,0.000129116373413668
429,-0.00350284576416016,0.000157176984906373
430,-0.00296449661254883,0.000128767223733457
431,-0.00369453430175781,0.000149577971852857
432,-0.00466203689575195,0.000243786465543216
433,-0.00401782989501953,0.000196813056854745
434,-0.00412082672119141,0.000188813064484678
435,-0.00539255142211914,0.000182144304690739
436,-0.00471353530883789,0.000164483248063866
437,-0.00517034530639648,0.000180720653885121
438,-0.00545358657836914,0.000138912739111704
439,-0.0053863525390625,0.00013713027548232
440,-0.00579547882080078,0.000159671398440982
441,-0.00517082214355469,0.000158197868850012
442,-0.00579118728637695,0.000115740863407932
443,-0.00588321685791016,0.000152662378249952
444,-0.00590944290161133,0.000168530739159557
445,-0.00601291656494141,0.000162508454104334
446,-0.00624608993530273,0.000158358761715242
447,-0.00630855560302734,0.000155006551575852
448,-0.00662851333618164,0.000121566358048221
449,-0.00662946701049805,0.000096808512819995
450,-0.00667762756347656,0.00010998722211367
451,-0.00694465637207031,0.000130130249566771
452,-0.00683212280273438,0.000132261941214775
453,-0.00689268112182617,0.000112830191385403
454,-0.00712108612060547,0.000153955647583661
455,-0.00683879852294922,0.000135690127653751
456,-0.00706577301025391,0.000163287313276859
457,-0.00730705261230469,0.000141359499477937
458,-0.00701284408569336,0.000141356282484901
459,-0.00738239288330078,0.0000941363990533127
460,-0.00770044326782227,0.00009380975820433
461,-0.00727510452270508,0.000124340260718072
462,-0.00786447525024414,0.0001314341750287
463,-0.00754690170288086,0.000111386139057943
464,-0.00731754302978516,0.000133245060221043
465,-0.00765132904052734,0.000126177275111389
466,-0.00785446166992188,0.000113935147686765
467,-0.00791549682617188,0.000111147049147432
468,-0.0077824592590332,0.000107045428429416
469,-0.00808477401733398,0.0000921813918242965
470,-0.00823783874511719,0.0000765453606856526
471,-0.00807380676269531,0.0000981080140909136
472,-0.00793361663818359,0.000155598036495308
473,-0.00789737701416016,0.000124105973967914
474,-0.00829029083251953,0.000113429126764825
475,-0.00803232192993164,0.0000847791793687342
476,-0.0081477165222168,0.000099143148978691
477,-0.00816440582275391,0.000106781716956262
478,-0.00823974609375,0.00012660542888852
479,-0.00830984115600586,0.000123455709516858
480,-0.0079951286315918,0.0000983903532144846
481,-0.00847959518432617,0.0000922257797526289
482,-0.00841665267944336,0.0000972233430587842
483,-0.00838088989257813,0.0000941750369489639
484,-0.00840616226196289,0.000080966893298306
485,-0.00721836090087891,0.0000648516065697178
486,-0.00769662857055664,0.0000574267166798576
487,-0.00894927978515625,0.0000803905590049166
488,-0.00850105285644531,0.0000807348818908601
489,-0.00834226608276367,0.0000914160383479866
490,-0.00821399688720703,0.00010729577780622
491,-0.00819253921508789,0.0000855640402014575
492,-0.00845813751220703,0.0000865245955647518
493,-0.00836658477783203,0.0000867974617263434
494,-0.00836610794067383,0.0000889758204883914
495,-0.00835943222045898,0.0000996281608171046
496,-0.00809097290039063,0.000117375575578807
497,-0.00826549530029297,0.000102669584559149
498,-0.00820684432983398,0.0000786882451810313
499,-0.00802326202392578,0.0000942281381863094
500,-0.00816440582275391,0.0000932286764761411
501,-0.0078587532043457,0.0000784407995316806
502,-0.00793838500976563,0.0000905086668715696
503,-0.00804281234741211,0.0000694121616335501
504,-0.00789165496826172,0.0000858505543924579
505,-0.00785255432128906,0.0000869204952104377
506,-0.00785493850708008,0.0000751907337369171
507,-0.00762176513671875,0.0000720734277606947
508,-0.00749635696411133,0.0000955889037564597
509,-0.00762176513671875,0.0000833115167103571
510,-0.00750637054443359,0.0000782637811683363
511,-0.00722074508666992,0.0000853565151715292
512,-0.00739908218383789,0.0000975455461307608
513,-0.00721931457519531,0.0000849961398526887
514,-0.0071258544921875,0.0000646989131663732
515,-0.00714445114135742,0.0000961438994500907
516,-0.00706768035888672,0.0000926783036289699
517,-0.0069880485534668,0.0000815628530405729
518,-0.00678682327270508,0.000075349324322236
519,-0.00667524337768555,0.000103212942220762
520,-0.00681877136230469,0.0000736138357025264
521,-0.00668764114379883,0.0000809598724183904
522,-0.00645971298217773,0.000090784585627001
523,-0.00635051727294922,0.000108022298733857
524,-0.00632286071777344,0.000113897224192419
525,-0.00625753402709961,0.0000903628432073568
526,-0.00618934631347656,0.0000934065451352725
527,-0.00601911544799805,0.0000933529765588018
528,-0.00589370727539063,0.000109548083460615
529,-0.00590753555297852,0.000117201102728927
530,-0.00583171844482422,0.0000717223956182982
531,-0.00576353073120117,0.0000802716798652287
532,-0.00565528869628906,0.0000693072598463806
533,-0.00565528869628906,0.0000756805317397745
534,-0.00554466247558594,0.000102370174861522
535,-0.00553131103515625,0.000074513339615456
536,-0.00549793243408203,0.0000758740672993559
537,-0.00549554824829102,0.0000819522032970572
538,-0.00526762008666992,0.0000695152697196451
539,-0.00521230697631836,0.0000759728948449804
540,-0.00521945953369141,0.0000847899064974102
541,-0.00513362884521484,0.0000995322612978406
542,-0.00520753860473633,0.0000920308068543376
543,-0.00509881973266602,0.0000882032747632741
544,-0.00502729415893555,0.0000759803765422603
545,-0.00501441955566406,0.0000766448059476397
546,-0.00506496429443359,0.0000849305744697461
547,-0.00504779815673828,0.0000860951904548063
548,-0.00482177734375,0.0000980268650502599
549,-0.00489521026611328,0.0000959900558582062
550,-0.00493335723876953,0.0000574504679940378
551,-0.00480508804321289,0.0000542757159238136
552,-0.0046539306640625,0.000057674632074221
553,-0.00483322143554688,0.0000635786851234734
554,-0.00471305847167969,0.0000995002742516281
555,-0.00466251373291016,0.0000868969490918395
556,-0.00448513031005859,0.0000697585220731922
557,-0.0046381950378418,0.0000867738822225794
558,-0.00462150573730469,0.0000730324015663413
559,-0.00469684600830078,0.0000712149551060821
560,-0.00455045700073242,0.0000873536521725043
561,-0.00455474853515625,0.0000622888786041562
562,-0.00464057922363281,0.0000812416337278254
563,-0.00459766387939453,0.0000797216970215087
564,-0.00453996658325195,0.000075371952880028
565,-0.00455617904663086,0.0000863667806311586
566,-0.00448131561279297,0.0000853551832553363
567,-0.004364013671875,0.0000632290387031018
568,-0.0043187141418457,0.0000707086964193318
569,-0.00426054000854492,0.0000837809807450833
570,-0.00409936904907227,0.0000660294648367225
571,-0.00410938262939453,0.0000580841682063768
572,-0.00423240661621094,0.0000663763490187846
573,-0.00422525405883789,0.0000773784918142414
574,-0.00386714935302734,0.0000614861130792525
575,-0.00427436828613281,0.0000513801718441428
576,-0.00408935546875,0.0000620749682056822
577,-0.00409412384033203,0.0000647112121709832
578,-0.00377511978149414,0.0000631336719233078
579,-0.00449752807617188,0.0000755166150843091
580,-0.00388956069946289,0.0000483137470302213
581,-0.0040125846862793,0.0000573653136022971
582,-0.00362920761108398,0.0000627090720453644
583,-0.00493478775024414,0.0000664328460955357
584,-0.00394725799560547,0.0000712277250806513
585,-0.00367021560668945,0.0000747540154196971
586,-0.00423288345336914,0.0000632506112177872
587,-0.00395059585571289,0.0000581663157729222
588,-0.00394201278686523,0.0000446473404875455
589,-0.00418663024902344,0.0000427992893958479
590,-0.00399446487426758,0.0000571727553837657
591,-0.00413417816162109,0.0000453534558208876
592,-0.00380754470825195,0.0000471406047579412
593,-0.00361251831054687,0.0000580704656473372
594,-0.00416803359985352,0.0000463526433561326
595,-0.00396060943603516,0.0000469581718601615
596,-0.00412178039550781,0.0000783929569532855
597,-0.00405311584472656,0.0000583146695946138
598,-0.00407934188842773,0.0000746246343974672
599,-0.00375080108642578,0.0000545640074248005
600,-0.00414419174194336,0.0000687522460635967
601,-0.0039215087890625,0.000062298003709112
602,-0.00397253036499023,0.0000593638323871922
603,-0.00382661819458008,0.0000622048648314014
604,-0.00401830673217773,0.0000584169308325057
605,-0.0039525032043457,0.0000561504859331919
606,-0.00389289855957031,0.0000532437318886103
607,-0.00391817092895508,0.0000678266288064129
608,-0.00384616851806641,0.0000608616837316032
609,-0.00395107269287109,0.0000608018798149491
610,-0.00374317169189453,0.0000602260621119143
611,-0.00396156311035156,0.0000583146695946138
612,-0.00383567810058594,0.0000640809533208173
613,-0.00388479232788086,0.0000700480115068583
614,-0.00385665893554687,0.0000643005669824126
615,-0.00382661819458008,0.0000488356681302105
616,-0.00395965576171875,0.0000568267069737681
617,-0.00405550003051758,0.0000546587267367833
618,-0.00402975082397461,0.0000754880060271715
619,-0.00407981872558594,0.0000678517662288504
620,-0.00399255752563477,0.0000720260909595459
621,-0.00414371490478516,0.000052406551362199
622,-0.00383996963500977,0.0000583312383390773
623,-0.00399923324584961,0.0000661636257569712
624,-0.0039820671081543,0.0000645634694846921
625,-0.00416803359985352,0.0000602260621119143
626,-0.00405693054199219,0.000056386876048957
627,-0.00385951995849609,0.0000555459007391809
628,-0.00383996963500977,0.0000604540385105643
629,-0.00364065170288086,0.000060790660030788
630,-0.00343704223632812,0.0000706314789091943
631,-0.00376319885253906,0.0000724290372697736
632,-0.00385808944702148,0.0000583312383390773
633,-0.00380992889404297,0.0000649707032792751
634,-0.00394773483276367,0.0000543154990668035
635,-0.00404071807861328,0.0000540837188786002
636,-0.00384855270385742,0.0000486221944221053
637,-0.00398778915405273,0.0000492229000113065
638,-0.00392532348632812,0.0000686827608969
639,-0.00383663177490234,0.0000680007238012141
640,-0.00397491455078125,0.0000776981238942953
641,-0.00397062301635742,0.0000815781840110943
642,-0.00389003753662109,0.0000716811712911149
643,-0.00388956069946289,0.0000508999935642227
644,-0.00397014617919922,0.0000559415550549225
645,-0.00385570526123047,0.0000680408363095255
646,-0.00386810302734375,0.0000662271711558024
647,-0.00388050079345703,0.0000759848652070265
648,-0.0037994384765625,0.000057596718002997
649,-0.0038294792175293,0.0000587497437715967
650,-0.00385761260986328,0.0000678266288064129
651,-0.00384330749511719,0.0000639726409045518
652,-0.0037841796875,0.0000445211187603858
653,-0.00389957427978516,0.0000499587913718933
654,-0.00377368927001953,0.0000781780301358002
655,-0.00393390655517578,0.0000596885091162445
656,-0.000087738037109375,0.0000351285322786091
657,-0.00673675537109375,0.0000360564256792814
658,-0.0042872428894043,0.0000603034068540189
659,-0.00382184982299805,0.000058642247179326
660,-0.00383853912353516,0.0000737295723064822
661,-0.00381565093994141,0.0000729124399916654
662,-0.00384902954101562,0.0000612768216887065
663,-0.00379514694213867,0.0000553521478950687
664,-0.00383949279785156,0.0000595741193807631
665,-0.00383663177490234,0.0000718997071265059
666,-0.00380420684814453,0.0000640330343593665
667,-0.00388813018798828,0.0000472345656303381
668,-0.00379037857055664,0.0000540795146094024
669,-0.00380134582519531,0.0000499576535528105
670,-0.00377893447875977,0.0000458966601850704
671,-0.00378131866455078,0.0000579106900835239
672,-0.00370407104492187,0.0000684888233538428
673,-0.00383472442626953,0.0000754533594972622
674,-0.00383329391479492,0.0000623982917898391
675,-0.00386810302734375,0.0000527654304995456
676,-0.00377988815307617,0.0000504445486521877
677,-0.00375604629516602,0.0000498722431385788
678,-0.00374078750610352,0.0000373526667848299
679,-0.00378513336181641,0.0000479179826522724
680,-0.00370168685913086,0.0000503757639309015
681,-0.0037078857421875,0.0000667282450406484
682,-0.00367403030395508,0.0000580518641439003
683,-0.0037226676940918,0.0000612415608589144
684,-0.00361013412475586,0.0000578890915071231
685,-0.00352191925048828,0.00004522920470186
686,-0.00360774993896484,0.0000602364433937056
687,-0.00356817245483398,0.0000749984665384211
688,-0.00360679626464844,0.0000512938055265093
689,-0.00357484817504883,0.0000467798881925063
690,-0.00351428985595703,0.0000489403136189278
691,-0.00348854064941406,0.0000570712528399745
692,-0.00351476669311523,0.0000637679450164953
693,-0.00347995758056641,0.000059963102126404
694,-0.00353765487670898,0.0000677578722699418
695,-0.00356435775756836,0.0000684340236512822
696,-0.00353336334228516,0.0000429464598282168
697,-0.00358486175537109,0.0000439337584419726
698,-0.00350427627563477,0.0000460869958790216
699,-0.00358057022094727,0.0000534812785022772
700,-0.00369644165039062,0.0000589535437101751
701,-0.00362491607666016,0.000069606793131273
702,-0.00360870361328125,0.0000604333489209965
703,-0.00372076034545898,0.0000665542378163074
704,-0.00372028350830078,0.000061401000908163
705,-0.00369739532470703,0.0000559720303999647
706,-0.00378704071044922,0.0000567346052811872
707,-0.00372552871704102,0.0000491974874876066
708,-0.00379610061645508,0.0000554352677494481
709,-0.00385951995849609,0.00004647633716969
710,-0.00382566452026367,0.0000500713074751878
711,-0.00383329391479492,0.0000538942020717402
712,-0.00380516052246094,0.0000474542820153226
713,-0.00380611419677734,0.0000462998813397917
714,-0.00377225875854492,0.0000505986915393155
715,-0.00379276275634766,0.0000495945030634158
716,-0.00377845764160156,0.0000506424858410597
717,-0.00372791290283203,0.0000658259837216404
718,-0.00360774993896484,0.0000678969901366145
719,-0.00365257263183594,0.0000583633877684894
720,-0.00355243682861328,0.0000612471297079499
721,-0.00356101989746094,0.0000498585638944891
722,-0.0035552978515625,0.0000431326819928391
723,-0.00352907180786133,0.0000434236098274973
724,-0.00334405899047852,0.0000489112678855902
725,-0.00346279144287109,0.0000375098427568381
726,-0.00344753265380859,0.0000614620715873933
727,-0.00336933135986328,0.0000694645531206836
728,-0.00335168838500977,0.000062290703732088
729,-0.00335168838500977,0.0000484042564099975
730,-0.00338363647460937,0.0000533876643853113
731,-0.00334882736206055,0.0000436247368296916
732,-0.00334835052490234,0.0000553624163578033
733,-0.00348663330078125,0.000049167437571145
734,-0.00343799591064453,0.0000400713475688066
735,-0.00329875946044922,0.0000456233746214051
736,-0.00345230102539062,0.0000432754350386935
737,-0.00342464447021484,0.0000525971055203402
738,-0.00353574752807617,0.0000565318555788889
739,-0.00348711013793945,0.0000489379905946654
740,-0.00353622436523437,0.0000485320914850827
741,-0.00359487533569336,0.0000609960281598532
742,-0.00360584259033203,0.000051219502801804
743,-0.00363969802856445,0.0000424927193777189
744,-0.00362253189086914,0.0000623089520710563
745,-0.00368165969848633,0.0000516692172402167
746,-0.00365877151489258,0.0000386171865082543
747,-0.00356245040893555,0.0000551649279174025
748,-0.00359725952148437,0.0000527902022450187
749,-0.00360918045043945,0.0000389549985227587
750,-0.00356960296630859,0.000029822342823732
751,-0.00357913970947266,0.000035162497118968
752,-0.00356149673461914,0.0000442958365113175
753,-0.00347137451171875,0.0000538129271685253
754,-0.00341701507568359,0.0000535237762470755
755,-0.00348281860351562,0.0000470295378233089
756,-0.00336074829101562,0.0000470524970409728
757,-0.00331592559814453,0.0000446053062646811
758,-0.00336980819702148,0.0000496506333207898
759,-0.00335168838500977,0.0000484559001512152
760,-0.00332355499267578,0.0000600237417547068
761,-0.00336647033691406,0.0000596218084418738
762,-0.0032963752746582,0.0000582815179747958
763,-0.00326967239379883,0.0000637429806345025
764,-0.00315713882446289,0.0000537991933169506
765,-0.00317239761352539,0.0000520025846365744
766,-0.0032806396484375,0.0000465374500654772
767,-0.00331974029541016,0.0000434523992534428
768,-0.00321483612060547,0.0000640063972125924
769,-0.00317716598510742,0.0000510505344529352
770,-0.00330257415771484,0.0000607962701816911
771,-0.00325965881347656,0.0000514542425545357
772,-0.00334739685058594,0.0000570702568233802
773,-0.00333309173583984,0.0000357635815850013
774,-0.00336599349975586,0.0000481924102718975
775,-0.00339698791503906,0.0000421771833252173
776,-0.00338459014892578,0.0000514442989584026
777,-0.00336074829101562,0.0000417334680310079
778,-0.00337553024291992,0.0000574831100270225
779,-0.00343751907348633,0.000057582899449304
780,-0.00346851348876953,0.0000429663090611989
781,-0.00346517562866211,0.0000449632409330499
782,-0.00346994400024414,0.0000427341610159972
783,-0.00358772277832031,0.000051108402278802
784,-0.00348377227783203,0.0000544795582984869
785,-0.00350522994995117,0.0000636197987780924
786,-0.00357294082641602,0.0000561109907581611
787,-0.00355720520019531,0.000044538990013296
788,-0.00351047515869141,0.0000477135088352907
789,-0.00346851348876953,0.0000402327378571279
790,-0.00356674194335937,0.0000418456869701907
791,-0.00348043441772461,0.0000524325767990104
792,-0.00355815887451172,0.0000485648755313204
793,-0.00356531143188477,0.0000520353669537914
794,-0.00350332260131836,0.0000509769922282661
795,-0.00342273712158203,0.000036084791752822
796,-0.0035548210144043,0.000055202010817453
797,-0.00347137451171875,0.0000544315412041863
798,-0.00349760055541992,0.000064807765991333
799,-0.00341653823852539,0.0000538804889367124
800,-0.00338363647460937,0.0000716383363041688
801,-0.00342512130737305,0.0000478645709660706
802,-0.00341272354125977,0.0000596294351522909
803,-0.00343894958496094,0.0000522544779745983
804,-0.00339651107788086,0.0000693597305720539
805,-0.00341653823852539,0.0000442406215848663
806,-0.00338363647460937,0.0000370991873344517
807,-0.00330877304077148,0.000045681895683279
808,-0.00337076187133789,0.0000506076780754913
809,-0.00339078903198242,0.0000424820162587864
810,-0.00336647033691406,0.0000588299957569194
811,-0.00341224670410156,0.00006982530861034
812,-0.00339031219482422,0.0000509446446483512
813,-0.00351524353027344,0.0000467774578790676
814,-0.00340986251831055,0.0000452719152504651
815,-0.00342035293579102,0.0000509491076045269
816,-0.00346946716308594,0.0000440990594691765
817,-0.00347232818603516,0.0000495463408025543
818,-0.00347328186035156,0.0000493704952451507
819,-0.00341367721557617,0.0000639850795110144
820,-0.0034942626953125,0.0000405584972405651
821,-0.00342178344726562,0.0000452053194662536
822,-0.00343513488769531,0.0000505571080313648
823,-0.00351333618164062,0.0000638979584175748
824,-0.00355100631713867,0.0000573058286252507
825,-0.00346136093139648,0.0000802419325614821
826,-0.00346994400024414,0.0000592200267649079
827,-0.00348186492919922,0.0000517791144573647
828,-0.00345993041992187,0.0000585646498087664
829,-0.00336456298828125,0.0000532576089804696
830,-0.00349807739257812,0.00005563486176678
831,-0.00345802307128906,0.0000423916011005197
832,-0.00340652465820312,0.0000383008891612306
833,-0.00337409973144531,0.0000572800326173601
834,-0.00332069396972656,0.0000470621607291094
835,-0.00330972671508789,0.0000411836609830742
836,-0.00325918197631836,0.0000398101916757278
837,-0.00330066680908203,0.0000432714942805887
838,-0.00327682495117187,0.0000634032064002787
839,-0.00327348709106445,0.0000490609593082122
840,-0.00319766998291016,0.000064057885702886
841,-0.00321722030639648,0.0000602024616321054
842,-0.00312709808349609,0.0000697161364841349
843,-0.00311899185180664,0.0000467555793734711
844,-0.00305032730102539,0.0000656236040833999
845,-0.00303220748901367,0.0000770649103196599
846,-0.00305557250976562,0.0000671562123143981
847,-0.00300359725952148,0.0000686165191291646
848,-0.00298309326171875,0.0000651210136644979
849,-0.00296735763549805,0.000050490728347584
850,-0.00302219390869141,0.0000678400365908396
851,-0.00299167633056641,0.000051830685653981
852,-0.00294303894042969,0.0000418042350660394
853,-0.00292539596557617,0.0000380947828910525
854,-0.00296878814697266,0.0000347330948589804
855,-0.00300788879394531,0.0000525744052322577
856,-0.00303745269775391,0.0000534323643094983
857,-0.0030665397644043,0.0000468187560504386
858,-0.00308036804199219,0.0000542746686052047
859,-0.00305509567260742,0.0000597903220609842
860,-0.00313711166381836,0.0000448695911415749
861,-0.00315570831298828,0.000059495826570443
862,-0.0031890869140625,0.0000415149666970804
863,-0.00313425064086914,0.0000339727652178896
864,-0.0030512809753418,0.0000411187384363367
865,-0.00313043594360352,0.0000633691287773702
866,-0.00319910049438477,0.0000506940920295169
867,-0.00313138961791992,0.0000769999737717989
868,-0.00321292877197266,0.0000581330795512569
869,-0.00322484970092773,0.000052146672678737
870,-0.00328779220581055,0.0000636751708321518
871,-0.00330018997192383,0.000049972443180147
872,-0.00335216522216797,0.0000498745226478305
873,-0.0033111572265625,0.0000632038614632219
874,-0.0032353401184082,0.0000587110289444786
875,-0.00324535369873047,0.0000574395831941617
876,-0.00317621231079102,0.0000393137706004572
877,-0.00328159332275391,0.000041332458315986
878,-0.00330066680908203,0.0000641323819539913
879,-0.0032196044921875,0.0000782201906958934
880,-0.00319957733154297,0.0000694301756664346
881,-0.00319147109985352,0.0000499246455191092
882,-0.00322771072387695,0.0000665337364590648
883,-0.00316095352172852,0.0000646197922428953
884,-0.00316190719604492,0.0000733337723806932
885,-0.003143310546875,0.0000804796031220079
886,-0.00310420989990234,0.0000569236528056791
887,-0.00309944152832031,0.0000567346052811872
888,-0.00300216674804687,0.0000806179207054446
889,-0.00301790237426758,0.0000465752997904056
890,-0.00294637680053711,0.0000574633291902265
891,-0.00285482406616211,0.0000676268741541791
892,-0.00290918350219727,0.0000914135510736218
893,-0.00283384323120117,0.0000808347987248537
894,-0.00281333923339844,0.0000620016671608008
895,-0.00279569625854492,0.0000580831895593635
896,-0.0027918815612793,0.0000503971987469405
897,-0.00276756286621094,0.000046889121922876
898,-0.00271081924438477,0.0000627362600249835
899,-0.00272274017333984,0.0000682443770145477
900,-0.00265073776245117,0.0000712468757509419
