Wavelength (nm),Absorbance (AU),Std.Dev.
200,1.51471138000488,1.17533343839365
201,1.37255811691284,0.570673580044615
202,1.42167901992798,0.126396013182527
203,1.78574800491333,0.0939811400303087
204,2.24151659011841,0.130819286070175
205,2.24840116500855,0.0941813400674175
206,2.40277862548828,0.0665765709846726
207,2.84680891036987,0.385997986783327
208,3.7381157875061,0.886968233075106
209,3.8111720085144,0.407356515910434
210,2.80632162094116,0.399107127252117
211,3.42846250534058,0.340426942132504
212,3.15467119216919,0.549019233853082
213,3.12390184402466,1.19037480967131
214,3.94604301452637,0.905930035110673
215,3.45761775970459,0.467894727555482
216,3.05946683883667,0.665279216229453
217,3.57722997665405,0.410212049775784
218,3.15098285675049,0.357800559298578
219,3.27332019805908,0.194122350435174
220,3.0218768119812,0.13879217383228
221,2.96746635437012,0.168238224065226
222,3.11113786697388,0.171388805409306
223,3.02238798141479,0.180434292232592
224,2.968665599823,0.0971299293474922
225,2.7685809135437,0.0823575749816636
226,2.58890771865845,0.0779523849895661
227,2.582200050354,0.0466187146734044
228,2.50221347808838,0.031338566207855
229,2.41500186920166,0.0391836195975983
230,2.27956962585449,0.0240239833366598
231,2.17622995376587,0.0136213732275859
232,2.09938430786133,0.0152022879704333
233,1.97565889358521,0.0106581085128178
234,1.87744379043579,0.00714293888590224
235,1.79705762863159,0.00589455533638919
236,1.70986366271973,0.00315668907038662
237,1.62586641311646,0.0029842540307019
238,1.55155992507935,0.00490365349040866
239,1.49765920639038,0.00291838053462165
240,1.44838953018188,0.00289305996793521
241,1.39819622039795,0.00170102993036821
242,1.36577749252319,0.00166159735569349
243,1.34068441390991,0.00249871697881576
244,1.3179292678833,0.00239392845818256
245,1.30482864379883,0.00256497475576805
246,1.29150867462158,0.00186488372942064
247,1.28728342056274,0.00202321416218815
248,1.27923679351807,0.00163450763858916
249,1.28243446350098,0.00211608103312497
250,1.27834796905518,0.0024341475344982
251,1.28097629547119,0.00235435747784139
252,1.28030633926392,0.00227145923656352
253,1.28254079818726,0.00270102117508367
254,1.28753280639648,0.00253516411449465
255,1.29124593734741,0.00338036423026345
256,1.28174018859863,0.00286247725082087
257,1.28071641921997,0.00215051507199945
258,1.28069639205933,0.00244131088070564
259,1.2678918838501,0.0019687386126416
260,1.25912570953369,0.00221777982387522
261,1.24327230453491,0.0033451915334241
262,1.22459411621094,0.00312048765081552
263,1.20526647567749,0.00293334097350997
264,1.18084907531738,0.00290823072698341
265,1.1569333076477,0.00168348775162658
266,1.13176488876343,0.00236914506237247
267,1.10163688659668,0.00283772455347814
268,1.07405948638916,0.00209251358049468
269,1.04478216171265,0.00181233051346192
270,1.0167670249939,0.00272774061802927
271,0.995197772979736,0.00156400727051621
272,0.975142002105713,0.00130064954892857
273,0.957341194152832,0.0012359383663242
274,0.942012310028076,0.000732362267929708
275,0.929822444915772,0.000949039641503208
276,0.920003414154053,0.000955884280229126
277,0.90886116027832,0.00112107975382824
278,0.901927471160889,0.00139561626154414
279,0.895256519317627,0.000915892845945657
280,0.888998508453369,0.000784641593010302
281,0.882487773895264,0.000759977312433654
282,0.873702049255371,0.000944551704593863
283,0.862081050872803,0.00117187599341032
284,0.847924709320068,0.00124136602781901
285,0.834803104400635,0.000963299813288935
286,0.817395210266113,0.000591819269398658
287,0.800393581390381,0.000698912505529711
288,0.788086414337158,0.000820842724828479
289,0.777353286743164,0.000549872434856492
290,0.76723051071167,0.000531490148933221
291,0.763081550598145,0.000528648779399693
292,0.757994174957275,0.000894755926610062
293,0.755023002624512,0.000940661340428145
294,0.755176067352295,0.000828378002187931
295,0.754959106445313,0.000845607480153464
296,0.755978584289551,0.000899459993015967
297,0.757556438446045,0.000833613915320174
298,0.758789539337158,0.000844522627981463
299,0.760575294494629,0.00117557062119106
300,0.761664390563965,0.000782952093623985
301,0.765205383300781,0.00100999468192091
302,0.763751029968262,0.000755945574110972
303,0.763863563537598,0.00108396487175519
304,0.765318870544434,0.00111777790347975
305,0.766376972198486,0.00117262081414191
306,0.761777400970459,0.00115178591755536
307,0.76310396194458,0.000994809856631293
308,0.759199619293213,0.000698683439227519
309,0.757381439208984,0.000947489711959137
310,0.752131462097168,0.000793291955061913
311,0.748654365539551,0.000937515695758401
312,0.741922378540039,0.000696472212096348
313,0.738053321838379,0.000781612759054826
314,0.730084896087647,0.000993404591859192
315,0.720955848693848,0.000630395314839403
316,0.715397834777832,0.000869332597726557
317,0.706536769866943,0.000781184432139295
318,0.696300506591797,0.000651822267894115
319,0.687107563018799,0.0008284131349573
320,0.678706169128418,0.000563142866927922
321,0.666538715362549,0.000591770090466431
322,0.654893398284912,0.000724973154136175
323,0.644063472747803,0.000794391815034217
324,0.632617473602295,0.000663219979801457
325,0.62070894241333,0.000837393390841211
326,0.607762336730957,0.000728736985711594
327,0.594557762145996,0.000649518725200116
328,0.581161499023438,0.000766042122535779
329,0.567913055419922,0.00055394605912541
330,0.554459571838379,0.000738831133647261
331,0.539743900299072,0.000524961113412043
332,0.526193618774414,0.000489575934586689
333,0.515107154846191,0.000680279360331124
334,0.500189781188965,0.000506981734068047
335,0.487314224243164,0.000511269061500062
336,0.473348617553711,0.000337104648435948
337,0.459768772125244,0.000339984559410755
338,0.446365833282471,0.000392589620521541
339,0.434177398681641,0.000330676169393495
340,0.420859336853027,0.000470338405088967
341,0.40777063369751,0.000532939284935221
342,0.395278453826904,0.00039067603314348
343,0.382144927978516,0.000403493280706096
344,0.370476245880127,0.000333458876383218
345,0.358017921447754,0.000265080290966674
346,0.346213817596436,0.000239689301641922
347,0.333733558654785,0.000301421437074918
348,0.322029113769531,0.000294992293230914
349,0.310872077941895,0.000258204569322006
350,0.299450874328613,0.000308241938264108
351,0.287448883056641,0.00031966730629265
352,0.276514530181885,0.000336764533958487
353,0.266904830932617,0.000344179990581266
354,0.25634241104126,0.000264750708547184
355,0.245455741882324,0.00020350167505583
356,0.235692024230957,0.000195677609717209
357,0.226319313049316,0.000324910555421315
358,0.215939998626709,0.000322663412089674
359,0.2071213722229,0.000344481103557981
360,0.198651313781738,0.000464595047952909
361,0.189784049987793,0.000341122250994619
362,0.181607246398926,0.000304525397580522
363,0.173940181732178,0.000303304418192232
364,0.166632175445557,0.000349195895817949
365,0.159199714660645,0.000349195895817949
366,0.15261697769165,0.000380208792479338
367,0.147275924682617,0.000280263448248103
368,0.141747951507568,0.000235941415834773
369,0.135340690612793,0.000198977695628377
370,0.128734588623047,0.000298352250623185
371,0.123628616333008,0.000256139239100713
372,0.11790657043457,0.000236826348341845
373,0.112284660339355,0.000224164185973037
374,0.106749534606934,0.000200784118273301
375,0.101834297180176,0.000232465817250502
376,0.0965547561645508,0.000195965569138204
377,0.0920500755310059,0.000272670814134064
378,0.0874295234680176,0.000191738349933093
379,0.0830683708190918,0.000169986929409375
380,0.0786094665527344,0.000218763825179785
381,0.0744342803955078,0.000214417716559573
382,0.0704140663146973,0.000209435217852931
383,0.0667481422424316,0.000204900206010736
384,0.0628256797790527,0.000240492384651041
385,0.0595049858093262,0.000217939099992152
386,0.0559921264648438,0.000258542496703159
387,0.0529484748840332,0.000239564051291665
388,0.0498456954956055,0.000218822021421385
389,0.0465497970581055,0.000247353042386118
390,0.0438933372497559,0.000218185177498836
391,0.0412759780883789,0.000162771281734055
392,0.0388374328613281,0.00020486025363308
393,0.0367474555969238,0.000207541969432609
394,0.0338621139526367,0.000163025317589657
395,0.0316767692565918,0.00021579607901947
396,0.0295476913452148,0.000229370073284979
397,0.0277481079101562,0.000268841449483689
398,0.0257463455200195,0.000162788043558358
399,0.0239825248718262,0.000132636179138249
400,0.0212936401367187,0.000211569589597504
401,0.0202288627624512,0.000170896734501664
402,0.0185785293579102,0.000218430977782474
403,0.0169024467468262,0.000223794669814166
404,0.0156755447387695,0.000217178256816708
405,0.014254093170166,0.000206949524054749
406,0.0126605033874512,0.000216271804733715
407,0.0111269950866699,0.000239719655507888
408,0.0102996826171875,0.000292819948952158
409,0.00906276702880859,0.000183249456694584
410,0.00787878036499023,0.000180609902756709
411,0.00707530975341797,0.000141250080611633
412,0.00572776794433594,0.000183333810844373
413,0.00541877746582031,0.000287459650428162
414,0.00405645370483398,0.000245885277711085
415,0.00307989120483398,0.000234472036142415
416,0.00271415710449219,0.000227734551339711
417,0.00228309631347656,0.000165522259518796
418,0.00163602828979492,0.000133026457565388
419,0.000444889068603516,0.00013757061913502
420,0.0000929832458496094,0.00015103925186709
421,-0.0000410079956054688,0.000197251573737311
422,-0.000665664672851563,0.000191743093290134
423,-0.00178766250610352,0.000166232299881722
424,-0.00230026245117187,0.000178268235727371
425,-0.00253677368164062,0.000205472003096041
426,-0.00299739837646484,0.000207454306506023
427,-0.00268030166625977,0.000208473292819299
428,-0.00377941131591797,0.000140371659226179
429,-0.00388717651367187,0.000153479356188117
430,-0.00334978103637695,0.000157930309635044
431,-0.00442361831665039,0.000131562128553169
432,-0.00504875183105469,0.000209109268737277
433,-0.00439023971557617,0.000202543002886226
434,-0.00471878051757813,0.000175346451028059
435,-0.00574779510498047,0.000164751206003814
436,-0.00520706176757813,0.000158111608895844
437,-0.00583457946777344,0.000190820674666507
438,-0.0058751106262207,0.000153911334872964
439,-0.00547981262207031,0.000131368420733985
440,-0.00612831115722656,0.000123097892858646
441,-0.00572633743286133,0.000133507592163689
442,-0.0061345100402832,0.000156524657087499
443,-0.0062103271484375,0.000182518415335382
444,-0.0063633918762207,0.00016946178096692
445,-0.00638294219970703,0.000148525398472794
446,-0.00642299652099609,0.000159642915699636
447,-0.00655174255371094,0.000173542523764375
448,-0.00687789916992188,0.0001179784171615
449,-0.0069890022277832,0.000106117428587398
450,-0.00699806213378906,0.000142493751501884
451,-0.00724172592163086,0.000149954483116157
452,-0.00728511810302734,0.000101706135461999
453,-0.00727653503417969,0.000105328136659803
454,-0.00745725631713867,0.000117154532752494
455,-0.00730037689208984,0.000114379309919464
456,-0.00737333297729492,0.000166481054603304
457,-0.00756072998046875,0.000135730338094003
458,-0.00750350952148438,0.00012319021306006
459,-0.00763654708862305,0.0000801724792625545
460,-0.00782108306884766,0.000099328739672024
461,-0.00768136978149414,0.000117837644067243
462,-0.0082087516784668,0.000109125931279709
463,-0.00770473480224609,0.0000991385620972442
464,-0.00767946243286133,0.0000918279920693451
465,-0.00789690017700195,0.000124050999004433
466,-0.00803089141845703,0.00011919021453833
467,-0.00819158554077148,0.0000964296314984477
468,-0.00798559188842773,0.0000872885551725007
469,-0.00829410552978516,0.0000774460469263411
470,-0.00856590270996094,0.0000855042289024449
471,-0.00836324691772461,0.000131063444302312
472,-0.00830888748168945,0.000139995361810686
473,-0.00826263427734375,0.0000990926816051086
474,-0.00844335556030273,0.000136774984996407
475,-0.00820446014404297,0.000129902904881665
476,-0.00836753845214844,0.000115061112572222
477,-0.00847101211547852,0.0000800504359452003
478,-0.00834178924560547,0.000137266171129779
479,-0.00867843627929688,0.000122694565094569
480,-0.00830221176147461,0.000109402697751617
481,-0.00866460800170898,0.000111687844379622
482,-0.00876617431640625,0.0000868367466709765
483,-0.00863313674926758,0.0000937176095246842
484,-0.00869274139404297,0.0000693679255377089
485,-0.00746631622314453,0.0000629858387983642
486,-0.00788497924804688,0.0000771062051036726
487,-0.00925111770629883,0.0000957338921686871
488,-0.00869226455688477,0.0000930284732472822
489,-0.00849580764770508,0.0000792855598768088
490,-0.00847864151000977,0.000112497194521331
491,-0.00846719741821289,0.000102886387991489
492,-0.00871086120605469,0.000111998888060785
493,-0.00855445861816406,0.0000893939326639556
494,-0.00851058959960938,0.0000844769209752657
495,-0.00853443145751953,0.0000848354816618885
496,-0.00846195220947266,0.000106048841270299
497,-0.00844764709472656,0.000110677592089947
498,-0.00854015350341797,0.0000733539230673049
499,-0.0082850456237793,0.0000911345467788718
500,-0.0083918571472168,0.0000948654313964951
501,-0.00808858871459961,0.0000834696601342758
502,-0.0082244873046875,0.000103263597801629
503,-0.00815963745117188,0.0000677142343897368
504,-0.0081944465637207,0.000073771193034502
505,-0.00808382034301758,0.0000822637386836808
506,-0.0081171989440918,0.0000738836057596076
507,-0.00783634185791016,0.000074645959638897
508,-0.00783109664916992,0.00009338463443174
509,-0.00780153274536133,0.0000836139089657247
510,-0.00771808624267578,0.0000699993050379906
511,-0.00748252868652344,0.0000780120746866378
512,-0.00755214691162109,0.000118729579844828
513,-0.00736093521118164,0.00010948164537796
514,-0.00731945037841797,0.0000701647690846115
515,-0.00739717483520508,0.0000970688678741415
516,-0.00732851028442383,0.000113801361177692
517,-0.0071110725402832,0.0000864562444622759
518,-0.00708484649658203,0.0000765750593601175
519,-0.00692319869995117,0.000102775831139382
520,-0.0069584846496582,0.0000854204227257672
521,-0.00689888000488281,0.0000980917896533991
522,-0.00672626495361328,0.000110307184116308
523,-0.00659942626953125,0.000111805858203039
524,-0.00659275054931641,0.000114299766594763
525,-0.00644445419311523,0.0000927812877270022
526,-0.00629949569702148,0.0000854137679198825
527,-0.00630044937133789,0.0000929551204302039
528,-0.00624322891235352,0.0000847322322129867
529,-0.00616645812988281,0.0000977620840284249
530,-0.00611305236816406,0.0000705976696904058
531,-0.00601959228515625,0.0000931505995808112
532,-0.00580406188964844,0.000093535470724772
533,-0.00583171844482422,0.0000774049334448691
534,-0.00580739974975586,0.0000932555003115245
535,-0.00574111938476563,0.0000820132188550217
536,-0.00569677352905273,0.0000758350998745678
537,-0.00577688217163086,0.0000828874114518767
538,-0.00543212890625,0.0000759010330279185
539,-0.00533866882324219,0.0000796960240528425
540,-0.00543498992919922,0.0000852952255003591
541,-0.00538158416748047,0.0000669408723847786
542,-0.00531721115112305,0.000091423499765067
543,-0.00538396835327148,0.0000953435868017373
544,-0.00521183013916016,0.0000937709697973774
545,-0.00521707534790039,0.0000606268022443669
546,-0.00526618957519531,0.00007290776216914
547,-0.00520467758178711,0.0000779172927405062
548,-0.00505208969116211,0.0000946278504791553
549,-0.0050506591796875,0.0000862600923305776
550,-0.00512790679931641,0.0000548984341124594
551,-0.00499105453491211,0.0000639015167056699
552,-0.00490474700927734,0.0000661756525395606
553,-0.00498390197753906,0.0000657049767950697
554,-0.00492572784423828,0.000101916064688535
555,-0.00480937957763672,0.0000954079541898596
556,-0.00477695465087891,0.0000656980553817149
557,-0.00488042831420898,0.0000609848440944547
558,-0.00485324859619141,0.0000650371623325499
559,-0.00489139556884766,0.000056441287014006
560,-0.00475788116455078,0.0000743070813211194
561,-0.00474977493286133,0.0000749802740659792
562,-0.00477266311645508,0.0000813367350014511
563,-0.00473976135253906,0.0000783595948518398
564,-0.00469541549682617,0.0000721223098154435
565,-0.00475788116455078,0.0000886891477480936
566,-0.00468254089355469,0.000078893136530265
567,-0.0045013427734375,0.0000806489389870015
568,-0.00451040267944336,0.0000743468496308013
569,-0.00446891784667969,0.0000785059924245547
570,-0.00428199768066406,0.0000632757698560821
571,-0.00431489944458008,0.0000782623285437495
572,-0.00440073013305664,0.0000751816613134035
573,-0.00439929962158203,0.0000713282087376219
574,-0.00414085388183594,0.0000606408645464706
575,-0.0044403076171875,0.0000540079919588157
576,-0.00423717498779297,0.0000643482867176485
577,-0.0042877197265625,0.0000669629468692648
578,-0.00398826599121094,0.0000612953718727929
579,-0.00467491149902344,0.0000754729442727912
580,-0.00410127639770508,0.0000600379453079597
581,-0.00423336029052734,0.0000615286250141332
582,-0.00374221801757812,0.0000641501064055786
583,-0.00515651702880859,0.000069934310311777
584,-0.00413846969604492,0.0000688001829603469
585,-0.00379037857055664,0.0000616356988222371
586,-0.00442266464233398,0.0000554752440023849
587,-0.00412988662719727,0.0000454361011332049
588,-0.00415992736816406,0.000051221722354285
589,-0.00439310073852539,0.0000593791510978239
590,-0.00425815582275391,0.0000533631699887763
591,-0.00435590744018555,0.0000370600956085497
592,-0.00405311584472656,0.0000473283399627433
593,-0.00382804870605469,0.0000386429374332934
594,-0.00435209274291992,0.0000414985327187244
595,-0.00407886505126953,0.0000595473968241871
596,-0.00427436828613281,0.0000708243648326841
597,-0.00426721572875977,0.0000599175821308814
598,-0.00420475006103516,0.0000773608590395771
599,-0.00386905670166016,0.0000504963571285902
600,-0.00432586669921875,0.0000636090760388194
601,-0.00417518615722656,0.0000649829508435228
602,-0.00415992736816406,0.0000618988998682037
603,-0.00403404235839844,0.0000547750795007289
604,-0.00418376922607422,0.0000608159016343368
605,-0.00419950485229492,0.0000556859244845122
606,-0.00403165817260742,0.00006445420408339
607,-0.00409793853759766,0.0000669680399477415
608,-0.00412750244140625,0.0000504772167122639
609,-0.00415945053100586,0.0000555499940259027
610,-0.00391340255737305,0.0000594929602456213
611,-0.00403213500976563,0.000064075630761456
612,-0.00400352478027344,0.0000697259200608152
613,-0.0041050910949707,0.0000675141471960542
614,-0.00404596328735352,0.0000543531614998973
615,-0.00404500961303711,0.0000510638943871596
616,-0.00424098968505859,0.000064811274328918
617,-0.00416946411132813,0.0000512250515026839
618,-0.00412559509277344,0.0000652727196496
619,-0.00429725646972656,0.0000760476786950043
620,-0.00406599044799805,0.0000836818645603733
621,-0.00440740585327148,0.0000442136310952085
622,-0.00406074523925781,0.0000469968922723147
623,-0.00419139862060547,0.0000569436211133076
624,-0.00425863265991211,0.0000679271226813672
625,-0.0042877197265625,0.0000580548016196337
626,-0.0042119026184082,0.0000638374371741931
627,-0.00401639938354492,0.0000729763401811257
628,-0.00393199920654297,0.0000583643617171711
629,-0.00382614135742187,0.0000536606021752747
630,-0.003692626953125,0.0000601816855541222
631,-0.00400018692016602,0.000075186197662002
632,-0.00405359268188477,0.0000620181674495282
633,-0.00399637222290039,0.0000649602035291681
634,-0.00425815582275391,0.0000464848978118136
635,-0.00422382354736328,0.0000542107439084152
636,-0.0039982795715332,0.0000514774368092774
637,-0.00411272048950195,0.0000438145631242308
638,-0.00415420532226563,0.0000631282694954767
639,-0.00404167175292969,0.0000703443906695556
640,-0.00411796569824219,0.0000785537661595793
641,-0.00399875640869141,0.0000677427700309838
642,-0.0040583610534668,0.0000674619262078376
643,-0.00413370132446289,0.0000592910144627987
644,-0.00411510467529297,0.0000679873477059185
645,-0.00399541854858398,0.0000752209672458739
646,-0.00417184829711914,0.0000688695496554597
647,-0.00411128997802734,0.0000716938582241862
648,-0.00408315658569336,0.0000610128004139836
649,-0.00412559509277344,0.0000835132332061554
650,-0.0040583610534668,0.0000804004576656818
651,-0.00412750244140625,0.0000710967241072224
652,-0.00395822525024414,0.0000548072406373514
653,-0.00402021408081055,0.0000701339769360289
654,-0.00403261184692383,0.0000858081682118794
655,-0.00418901443481445,0.0000668048688465127
656,-0.000253677368164062,0.0000452493088053984
657,-0.00690937042236328,0.0000390351724215844
658,-0.00449275970458984,0.0000668439982057847
659,-0.00408220291137695,0.0000542620992051739
660,-0.0039668083190918,0.0000735922113771719
661,-0.00393867492675781,0.0000692531077723166
662,-0.00403070449829102,0.0000663335161677521
663,-0.00395870208740234,0.0000548445653865405
664,-0.00397729873657227,0.0000753115949501232
665,-0.004058837890625,0.0000843112282877065
666,-0.00395298004150391,0.0000777975569450828
667,-0.00413274765014648,0.000062336314563221
668,-0.00403118133544922,0.000061801480565561
669,-0.00402688980102539,0.000057029405165581
670,-0.00396919250488281,0.0000584636192524923
671,-0.00391578674316406,0.0000611523903049982
672,-0.00391435623168945,0.000046088229256402
673,-0.00402927398681641,0.0000643800802240466
674,-0.00407505035400391,0.0000562405120806239
675,-0.0039820671081543,0.0000551886226445254
676,-0.003997802734375,0.0000485894490498174
677,-0.00395965576171875,0.0000599042989499319
678,-0.00392055511474609,0.0000497009819824043
679,-0.00394010543823242,0.0000485824293128542
680,-0.00384998321533203,0.0000696704616273074
681,-0.00388574600219727,0.0000667265412900247
682,-0.00387907028198242,0.0000512350376499531
683,-0.00393247604370117,0.000048173534418925
684,-0.00377559661865234,0.0000607588593910083
685,-0.0037693977355957,0.0000467117916204354
686,-0.00382041931152344,0.0000564171108414113
687,-0.00370979309082031,0.0000769408929883192
688,-0.00374507904052734,0.0000476491325853724
689,-0.00368547439575195,0.0000442701637164687
690,-0.00366353988647461,0.0000491847763020049
691,-0.00369691848754883,0.0000598900637010597
692,-0.00371837615966797,0.0000612619774971882
693,-0.00369024276733398,0.0000573633317635444
694,-0.00369548797607422,0.0000681943823481115
695,-0.00378942489624023,0.0000858889488006474
696,-0.00364303588867187,0.0000583019962011473
697,-0.00371932983398437,0.0000513059941976208
698,-0.00371885299682617,0.0000411809004065398
699,-0.00377798080444336,0.0000424003161345617
700,-0.00385093688964844,0.0000599232740213453
701,-0.00384664535522461,0.0000681109763552709
702,-0.00385046005249023,0.0000690541868491366
703,-0.00387191772460937,0.0000634480174924514
704,-0.00398731231689453,0.0000663180895691246
705,-0.00391244888305664,0.0000598653812510722
706,-0.0039515495300293,0.0000643023350115311
707,-0.00385570526123047,0.0000579440538660568
708,-0.00398159027099609,0.0000580391333644075
709,-0.00406360626220703,0.000051617484720236
710,-0.0040135383605957,0.0000518252017957787
711,-0.00399971008300781,0.0000532490696596178
712,-0.00401687622070313,0.0000472694521713616
713,-0.0040125846862793,0.0000461498560981153
714,-0.00392055511474609,0.0000503114046899089
715,-0.00399065017700195,0.0000393405104863068
716,-0.00400543212890625,0.0000459412248672345
717,-0.00390720367431641,0.0000694923700325353
718,-0.0038456916809082,0.0000674720366501886
719,-0.00384807586669922,0.0000629912534417267
720,-0.00368022918701172,0.0000682926704024054
721,-0.00375843048095703,0.00005831369481598
722,-0.00373601913452148,0.0000459585439067635
723,-0.00369405746459961,0.0000473367465241651
724,-0.00357580184936523,0.0000533418613707528
725,-0.00358390808105469,0.0000470512889404002
726,-0.00365877151489258,0.000064417152815372
727,-0.00356578826904297,0.0000645564256848147
728,-0.00359821319580078,0.0000615434048906409
729,-0.00354337692260742,0.0000544649488815525
730,-0.00354957580566406,0.0000583828636550957
731,-0.00353670120239258,0.0000455685208338532
732,-0.00352382659912109,0.0000446969663319778
733,-0.00360012054443359,0.0000599602581391073
734,-0.00362634658813477,0.0000502130131239901
735,-0.00353765487670898,0.0000420178503305183
736,-0.00361537933349609,0.0000398380252346142
737,-0.0035395622253418,0.0000466813592930619
738,-0.00367355346679687,0.0000472080827809904
739,-0.00366020202636719,0.0000502458317204913
740,-0.00367259979248047,0.0000469739058769744
741,-0.00382661819458008,0.0000622870534227448
742,-0.00378561019897461,0.0000561332735041554
743,-0.00374555587768555,0.0000456694506737356
744,-0.0037531852722168,0.0000619668187894562
745,-0.00384712219238281,0.000046767735362386
746,-0.00384092330932617,0.0000415908893792048
747,-0.00374126434326172,0.0000531710850036103
748,-0.00376319885253906,0.0000560846451899419
749,-0.00379562377929687,0.0000540952789340659
750,-0.00374746322631836,0.0000398537176410018
751,-0.00371885299682617,0.0000403688490710412
752,-0.00376415252685547,0.0000512095136251509
753,-0.00371313095092773,0.0000624074008965854
754,-0.00360345840454102,0.0000581497000366642
755,-0.0036931037902832,0.000052333828519911
756,-0.00356960296630859,0.0000472417856490739
757,-0.00355386734008789,0.0000501971619841391
758,-0.00353431701660156,0.000058156542385342
759,-0.00353384017944336,0.0000477504263577272
760,-0.00351047515869141,0.0000698187956629692
761,-0.00351238250732422,0.0000630165156257949
762,-0.00345325469970703,0.0000479239136095132
763,-0.00345563888549805,0.000051872344030275
764,-0.00336837768554687,0.0000626836859584254
765,-0.00332021713256836,0.0000534685225921334
766,-0.00347042083740234,0.0000526608301543318
767,-0.00351715087890625,0.0000471333692400416
768,-0.00341415405273437,0.0000554260383656771
769,-0.0033726692199707,0.0000519347689409064
770,-0.00346660614013672,0.0000650493973838232
771,-0.00348234176635742,0.000059208507226443
772,-0.00348138809204102,0.0000582014863792436
773,-0.00357675552368164,0.0000419806307522945
774,-0.00348758697509766,0.0000537865128029506
775,-0.0035395622253418,0.0000460289898626945
776,-0.00357580184936523,0.0000508184042024563
777,-0.00351095199584961,0.0000350134547648621
778,-0.00354576110839844,0.0000583107703823067
779,-0.00359153747558594,0.0000590546986610574
780,-0.00363492965698242,0.000041738234963007
781,-0.0036768913269043,0.0000453045490897554
782,-0.00363922119140625,0.0000440229431392358
783,-0.00372552871704102,0.0000480269950187795
784,-0.00366353988647461,0.000049873382906228
785,-0.00366783142089844,0.0000639601998791016
786,-0.00375509262084961,0.000060311889870413
787,-0.00371932983398437,0.0000455273371211243
788,-0.00372743606567383,0.0000511506489042443
789,-0.00363779067993164,0.0000450970491274317
790,-0.00372171401977539,0.00004246060192706
791,-0.00364398956298828,0.0000517165016628033
792,-0.00369644165039062,0.0000457651899520294
793,-0.00373029708862305,0.0000421137924185898
794,-0.00365972518920898,0.0000460018129789486
795,-0.00358819961547852,0.0000389732343458899
796,-0.00372600555419922,0.0000429146819593402
797,-0.00370216369628906,0.0000505076128087177
798,-0.00359582901000977,0.0000549408702911287
799,-0.00359106063842773,0.0000550597240701823
800,-0.0036015510559082,0.0000781285715404359
801,-0.00361204147338867,0.0000490285069809988
802,-0.00358343124389648,0.0000550948143400733
803,-0.00355625152587891,0.0000546660060398636
804,-0.00352001190185547,0.0000595416690017241
805,-0.00357437133789062,0.0000518186203998799
806,-0.00353288650512695,0.0000436051873163507
807,-0.0034794807434082,0.0000469944731812169
808,-0.00359630584716797,0.0000530555002048535
809,-0.00356626510620117,0.0000423399445041358
810,-0.00347995758056641,0.0000600332111635964
811,-0.003570556640625,0.0000696459806322696
812,-0.00357913970947266,0.0000549263835749135
813,-0.00369167327880859,0.0000514873740056011
814,-0.0036320686340332,0.0000555213346815584
815,-0.00355768203735352,0.0000505750942846243
816,-0.00362968444824219,0.0000476097486917709
817,-0.00366735458374023,0.0000481770742046932
818,-0.00363302230834961,0.0000563909082912425
819,-0.00361251831054687,0.0000691167195478945
820,-0.00365018844604492,0.00004963460258154
821,-0.00361537933349609,0.0000580665500365545
822,-0.00363349914550781,0.0000605686434257762
823,-0.0037226676940918,0.0000615674146226242
824,-0.00375556945800781,0.0000514476137039869
825,-0.00363254547119141,0.0000666873430119553
826,-0.00367975234985352,0.0000598568349547212
827,-0.00365447998046875,0.0000524878380056554
828,-0.0036320686340332,0.000051344757083139
829,-0.00358438491821289,0.0000570064755643812
830,-0.00364208221435547,0.00005503700667964
831,-0.00363588333129883,0.0000438495779499152
832,-0.00360202789306641,0.0000444776872509559
833,-0.00351905822753906,0.0000548725422871676
834,-0.00350189208984375,0.000062552966202272
835,-0.00357437133789062,0.0000473739576504056
836,-0.00343894958496094,0.0000366475027447207
837,-0.00342750549316406,0.0000451990317800884
838,-0.00341606140136719,0.0000541152404861247
839,-0.0033869743347168,0.0000497295664666234
840,-0.00333881378173828,0.0000449556549743986
841,-0.00333166122436523,0.0000526953604347714
842,-0.00331401824951172,0.000078787871612804
843,-0.00335597991943359,0.0000459696741294671
844,-0.00326633453369141,0.0000680842648580505
845,-0.00322675704956055,0.0000776893442798985
846,-0.00319290161132812,0.0000751075288353078
847,-0.00318098068237305,0.000068267695329196
848,-0.00311613082885742,0.0000692645981136987
849,-0.00314474105834961,0.000065457081664647
850,-0.00323390960693359,0.000062137206106338
851,-0.00313854217529297,0.0000546764033631293
852,-0.00310468673706055,0.000057591783185869
853,-0.00314044952392578,0.0000516351016097319
854,-0.00313997268676758,0.0000371512456501701
855,-0.00316190719604492,0.000061419513587122
856,-0.00327825546264648,0.0000514509282360176
857,-0.00321340560913086,0.0000413118240686235
858,-0.00317621231079102,0.000048848470159658
859,-0.00322484970092773,0.0000452380013465097
860,-0.00332307815551758,0.0000542254218133145
861,-0.00333786010742187,0.0000699814375057542
862,-0.00329446792602539,0.0000527039894699846
863,-0.00337028503417969,0.0000395803565396254
864,-0.00322341918945312,0.0000435621475050211
865,-0.00336360931396484,0.0000588879411341783
866,-0.00336503982543945,0.0000581858576232208
867,-0.0034184455871582,0.0000585287262310375
868,-0.00334548950195312,0.0000432083932710345
869,-0.00341272354125977,0.0000517780166397975
870,-0.00348663330078125,0.000065451871012416
871,-0.00343704223632812,0.0000412188421274869
872,-0.00353670120239258,0.0000519599367033192
873,-0.0034794807434082,0.0000545827561536853
874,-0.0034947395324707,0.0000606614833594866
875,-0.00345134735107422,0.0000717366600582064
876,-0.00334358215332031,0.0000470995887929172
877,-0.00342464447021484,0.0000466484700802658
878,-0.00345897674560547,0.0000513558268193958
879,-0.00339937210083008,0.0000705042076229493
880,-0.00338268280029297,0.0000726140174727205
881,-0.00331354141235352,0.0000687042757199397
882,-0.00337982177734375,0.0000571588343341937
883,-0.00338888168334961,0.0000662769344183012
884,-0.00337076187133789,0.0000654292867242581
885,-0.00333738327026367,0.0000935184530039311
886,-0.00325918197631836,0.0000665883927183895
887,-0.00327110290527344,0.0000600739126130052
888,-0.00325775146484375,0.0000794431312907402
889,-0.00320243835449219,0.0000641430172126732
890,-0.00319433212280273,0.0000581848806865839
891,-0.00303888320922852,0.0000527050680000507
892,-0.00306797027587891,0.0000779800075407396
893,-0.00297069549560547,0.0000866348949695277
894,-0.00299644470214844,0.0000881362255139315
895,-0.00297975540161133,0.000058890836906395
896,-0.00303173065185547,0.0000523425171562586
897,-0.00298118591308594,0.0000415731181229273
898,-0.00290966033935547,0.0000650056901979547
899,-0.00294780731201172,0.0000720039898023476
900,-0.00288772583007812,0.0000528848739696851
