Wavelength (nm),Absorbance (AU),Std.Dev.
200,0.966068267822266,0.458248246126622
201,1.43883037567139,0.354426270128261
202,1.67451858520508,0.328148250664334
203,1.82016849517822,0.203275184863401
204,2.12894248962402,0.214519464067639
205,2.8797345161438,0.177272321793953
206,2.33548069000244,0.134397141162803
207,2.94206190109253,0.207160189800746
208,2.89853715896606,0.572568845648986
209,3.8111720085144,0.853781512504077
210,3.84852361679077,0.856529379604109
211,3.88941860198975,0.740025634321626
212,3.86217641830444,0.431503619376659
213,3.25607919692993,0.205092075418369
214,3.09582376480103,0.373460789676482
215,3.13716173171997,0.772371424372691
216,3.52093553543091,0.394840534711879
217,2.84931564331055,0.187464392777856
218,3.1435227394104,0.23954662097004
219,2.96673202514648,0.173429911679435
220,2.83545970916748,0.174951928211891
221,2.87014627456665,0.163088861313611
222,2.77972030639648,0.0769798271209369
223,2.64290523529053,0.0695230886405802
224,2.60599374771118,0.0945451710436645
225,2.69782829284668,0.0551671384270695
226,2.49182891845703,0.0358321594814866
227,2.38084125518799,0.0170767597794078
228,2.28859233856201,0.0117289181147112
229,2.18718671798706,0.012109904123867
230,2.11428499221802,0.00637737068339751
231,2.01020622253418,0.00716740910062973
232,1.92910575866699,0.00704579438511396
233,1.83172178268433,0.0052820982280085
234,1.74516344070435,0.00433338863615668
235,1.66276979446411,0.00425137356692665
236,1.57453918457031,0.00319728982737987
237,1.50312995910645,0.00227775442761927
238,1.43695068359375,0.00271220415079698
239,1.3845362663269,0.00265366968881044
240,1.33283090591431,0.00168808004777016
241,1.29303216934204,0.00166705325729342
242,1.26405477523804,0.00144938417349129
243,1.23818302154541,0.0014182057379675
244,1.21998977661133,0.00153576509278395
245,1.20728921890259,0.00149734521172138
246,1.19676160812378,0.00158331536347666
247,1.19167518615723,0.00145671496397249
248,1.18630123138428,0.00133686499718076
249,1.18637228012085,0.00176243967754538
250,1.18492746353149,0.00210156239009701
251,1.18812084197998,0.00171605418939326
252,1.18982839584351,0.00150459707172604
253,1.19305896759033,0.00164459027481169
254,1.18728113174438,0.00272769793939928
255,1.18998193740845,0.00291430887505183
256,1.19230461120605,0.00255332936632782
257,1.18311166763306,0.00280313548763359
258,1.18261957168579,0.00220350862098559
259,1.1731128692627,0.00192672047334773
260,1.16262817382812,0.00231677466063332
261,1.14681053161621,0.00243672876505798
262,1.13418531417847,0.0021236046564584
263,1.11380815505981,0.00108401856926949
264,1.09285736083984,0.00130819090293308
265,1.07181358337402,0.00233718628499387
266,1.05031061172485,0.00219488014429996
267,1.02332448959351,0.00310470427694333
268,0.996082305908203,0.00233254935229753
269,0.970280170440674,0.00174027141484531
270,0.945313453674316,0.00146388976504046
271,0.923044204711914,0.00107917509216839
272,0.906307220458984,0.000765205831759681
273,0.890064716339111,0.000767579275232283
274,0.878114700317383,0.00115080002654814
275,0.867504596710205,0.00110447179672617
276,0.857539176940918,0.00100736902888931
277,0.8465256690979,0.000784270586515018
278,0.841651916503906,0.00108761026341401
279,0.834878444671631,0.00133797481717471
280,0.826086521148682,0.00138506609531317
281,0.81958532333374,0.0011057095956111
282,0.813845157623291,0.000675890726940473
283,0.803614616394043,0.000626702634439669
284,0.790449142456055,0.00099565790963426
285,0.776975154876709,0.00118213769215372
286,0.761098861694336,0.000823515304838234
287,0.746849060058594,0.000682201841710816
288,0.734858989715576,0.000640221677419165
289,0.72249698638916,0.000520926208957262
290,0.714170455932617,0.000725234047748788
291,0.710467338562012,0.000556514520749757
292,0.704959392547607,0.000604542265652645
293,0.703389167785645,0.000684671744098301
294,0.70321798324585,0.000493557555836056
295,0.701420783996582,0.000651297419699244
296,0.702093124389648,0.000685765444182726
297,0.703109264373779,0.000860567295336074
298,0.706695556640625,0.000618745777959821
299,0.70670223236084,0.000934888834271845
300,0.705719470977783,0.000674834933203476
301,0.707954883575439,0.000548414974211943
302,0.707238674163818,0.000459959802099718
303,0.706077098846436,0.000785679479169032
304,0.705286979675293,0.00111368255743913
305,0.705636501312256,0.00109406688050802
306,0.702996253967285,0.000913108172630443
307,0.702725410461426,0.000946429389847385
308,0.696912288665772,0.000682521728804644
309,0.696372032165527,0.000985226346274287
310,0.689963817596436,0.00063477754581702
311,0.687269687652588,0.000341713631234141
312,0.680773735046387,0.00039370928489504
313,0.676245212554932,0.000668269202076042
314,0.669669151306152,0.000730950148453858
315,0.661377906799316,0.000695635960114277
316,0.654867649078369,0.000556017480864274
317,0.646297454833984,0.000521484603596041
318,0.636307239532471,0.000553525586701522
319,0.62844181060791,0.000784604500255276
320,0.618396282196045,0.000547578499651419
321,0.607635974884033,0.000518686619011949
322,0.597289562225342,0.000482299040975041
323,0.586004257202148,0.0006103515625
324,0.574741363525391,0.00057305590561354
325,0.563117504119873,0.000577520473259752
326,0.551125526428223,0.000595520550468688
327,0.538451671600342,0.000550070880290379
328,0.525951862335205,0.000640732886952656
329,0.515236377716064,0.000560202288298575
330,0.502353191375732,0.000341180902001436
331,0.48896598815918,0.000382783534696081
332,0.476070404052734,0.000587500533873488
333,0.464720726013184,0.000575640218943345
334,0.45134973526001,0.000362436392718043
335,0.439584732055664,0.000331313649803895
336,0.426169872283936,0.000429767593050065
337,0.414402008056641,0.000416684744797862
338,0.401750564575195,0.000439402789306089
339,0.390144824981689,0.000312059956912499
340,0.3785719871521,0.000241405846057634
341,0.366734027862549,0.000288445099313869
342,0.354507446289062,0.000301716992709817
343,0.342784881591797,0.000287453322550765
344,0.332032680511475,0.000370202562958118
345,0.320563316345215,0.000368044158903864
346,0.309089660644531,0.000364657923754327
347,0.298649787902832,0.000315929717740146
348,0.287600517272949,0.000234464278204512
349,0.277396202087402,0.000271125431813571
350,0.267009258270264,0.000257513257320216
351,0.256762027740479,0.000212534618023169
352,0.24696683883667,0.000316418733247529
353,0.237349987030029,0.00032250552568096
354,0.227670192718506,0.000242218257408413
355,0.218210220336914,0.000321878856788023
356,0.209779262542725,0.000200548434802674
357,0.200498580932617,0.000315139942652144
358,0.191043853759766,0.000273802537018449
359,0.182933807373047,0.000395626591872076
360,0.175662994384766,0.000386848673525611
361,0.167680263519287,0.000327331257026373
362,0.160149574279785,0.000275972981152984
363,0.153708934783936,0.000275048667136331
364,0.147585391998291,0.000335389780278523
365,0.140443325042725,0.000335389780278523
366,0.134356498718262,0.000329209700103246
367,0.129663467407227,0.000256479887690697
368,0.124594211578369,0.000238803552717639
369,0.118502616882324,0.000156988813068457
370,0.112961292266846,0.000214744078751184
371,0.108267307281494,0.000244110820858401
372,0.102981090545654,0.000228484126104564
373,0.0982861518859863,0.000190944556363027
374,0.0934662818908691,0.000232418863944176
375,0.0886940956115723,0.000245611409708903
376,0.0844764709472656,0.000204878011207216
377,0.0799093246459961,0.000255513537160104
378,0.0760569572448731,0.000189409419000574
379,0.0722227096557617,0.000172901968893579
380,0.0684123039245606,0.000215859288799974
381,0.0644869804382324,0.000215450204430366
382,0.0608086585998535,0.000199898872475798
383,0.0576357841491699,0.000190310005028641
384,0.0541934967041016,0.000199174144662232
385,0.051175594329834,0.000178630098575244
386,0.0482368469238281,0.000212410482711074
387,0.0455236434936523,0.00019149153345796
388,0.042900562286377,0.000205055502370373
389,0.0399870872497559,0.000241451051734393
390,0.037315845489502,0.000230994015428137
391,0.0353693962097168,0.000223379760314291
392,0.0333042144775391,0.000188253474202427
393,0.0309691429138184,0.000203823205223507
394,0.028681755065918,0.000154041282678559
395,0.0269265174865723,0.00019367808208448
396,0.0249061584472656,0.000163086673455091
397,0.0233445167541504,0.000223008944399877
398,0.0215845108032227,0.00017821721009856
399,0.0201067924499512,0.000131579410026605
400,0.0179276466369629,0.000200230730517456
401,0.0165195465087891,0.000194778494679869
402,0.0149297714233398,0.000248131322753134
403,0.0134835243225098,0.000240526418465365
404,0.0126643180847168,0.000152158131982263
405,0.0118803977966309,0.000180997235221594
406,0.0100598335266113,0.000219361677786714
407,0.00875568389892578,0.000256848413831585
408,0.00821256637573242,0.00030387960783904
409,0.00702953338623047,0.000196373560733547
410,0.00605154037475586,0.000230102463173285
411,0.00518512725830078,0.000170075187770545
412,0.00457382202148438,0.00013769287037882
413,0.00377941131591797,0.000240481038975911
414,0.00241422653198242,0.000233083153650589
415,0.00184202194213867,0.000214061117591971
416,0.0014033317565918,0.000228838121690163
417,0.00101137161254883,0.000209890696231341
418,0.000314712524414062,0.00015578788822245
419,-0.000377655029296875,0.000140008354419699
420,-0.000445842742919922,0.000136701820168308
421,-0.000635147094726563,0.000156791714669246
422,-0.00160121917724609,0.000159500425698468
423,-0.00222396850585937,0.000159508978688028
424,-0.00265169143676758,0.000142850735467757
425,-0.00286722183227539,0.000163384757525717
426,-0.00359869003295898,0.000203698226021447
427,-0.00301122665405273,0.000171867882177506
428,-0.00382328033447266,0.00017478537419519
429,-0.00406599044799805,0.000237060493592984
430,-0.00352096557617187,0.000136894624912855
431,-0.00441789627075195,0.000152617690037573
432,-0.0051116943359375,0.00022222453356204
433,-0.00435686111450195,0.000191553267391415
434,-0.00421428680419922,0.000188209988163891
435,-0.00552034378051758,0.000151400115484709
436,-0.00501251220703125,0.000163898857566382
437,-0.00531148910522461,0.000218668183444711
438,-0.00532817840576172,0.000182039415934567
439,-0.00549554824829102,0.000164256385958336
440,-0.00598049163818359,0.000159109349265998
441,-0.00514936447143555,0.000150048463312321
442,-0.00574636459350586,0.000128438370048663
443,-0.00567340850830078,0.000188321099192134
444,-0.0058746337890625,0.000157751684713384
445,-0.00600099563598633,0.000156884497702542
446,-0.00593280792236328,0.000156791714669246
447,-0.00610113143920898,0.000154515841958814
448,-0.00627470016479492,0.000129003620309823
449,-0.00635814666748047,0.000143704511754002
450,-0.0063471794128418,0.000129647104030385
451,-0.00658750534057617,0.00012041436493631
452,-0.00657415390014648,0.0000902646569030913
453,-0.00658845901489258,0.00011990155441413
454,-0.00677156448364258,0.000151894903122441
455,-0.0064845085144043,0.000138371537758759
456,-0.00667238235473633,0.000188016595194441
457,-0.00678443908691406,0.000175962602922205
458,-0.00665712356567383,0.000132673887627194
459,-0.00699615478515625,0.00010358457290623
460,-0.00726652145385742,0.000128887240361032
461,-0.0069270133972168,0.00012230106240486
462,-0.00722265243530273,0.000111118405636822
463,-0.00718402862548828,0.000140040830668522
464,-0.00692415237426758,0.000104572030422895
465,-0.00712203979492188,0.000126072714764868
466,-0.00727176666259766,0.000136698493563852
467,-0.007476806640625,0.0000987317791473558
468,-0.00714921951293945,0.0000870590265120435
469,-0.00738525390625,0.000117034141209735
470,-0.00761651992797852,0.000133005945146017
471,-0.00749444961547852,0.000122312216681176
472,-0.00745296478271484,0.000137289359382081
473,-0.0075068473815918,0.000104306425353181
474,-0.00773763656616211,0.000101237818004336
475,-0.00726985931396484,0.000101578626647607
476,-0.00759172439575195,0.000120187560092168
477,-0.00766563415527344,0.000114407137017605
478,-0.00737285614013672,0.00012538913393731
479,-0.00758743286132813,0.000123613997931007
480,-0.00763654708862305,0.000109707785211042
481,-0.00791263580322266,0.0000908997214825604
482,-0.00781488418579102,0.0000906366972796559
483,-0.00768661499023438,0.0000703233776271468
484,-0.00781154632568359,0.0000737850613932979
485,-0.00661706924438477,0.0000698318209502731
486,-0.00688886642456055,0.0000691019142859539
487,-0.00836181640625,0.0000976503824915103
488,-0.0079803466796875,0.0000692186253037417
489,-0.00763225555419922,0.0000845105586264069
490,-0.00763559341430664,0.000121542040848205
491,-0.00775718688964844,0.000098503523926124
492,-0.00777959823608398,0.0000783465362493167
493,-0.00780677795410156,0.0000858200914410907
494,-0.00777721405029297,0.0000865140835254025
495,-0.00774002075195313,0.0000829778864503788
496,-0.00740432739257813,0.000102934995388617
497,-0.00754785537719727,0.000115913611061391
498,-0.00763368606567383,0.000117439484012131
499,-0.00728750228881836,0.000113120005775257
500,-0.00743818283081055,0.000101491291473354
501,-0.00727081298828125,0.0000766373891150666
502,-0.00735139846801758,0.0000965804206937573
503,-0.00733041763305664,0.0000820755742127744
504,-0.00728130340576172,0.0000775252756395677
505,-0.0071721076965332,0.000095190838391957
506,-0.00719785690307617,0.0000672560175691935
507,-0.00702905654907227,0.0000749408418917738
508,-0.00691938400268555,0.0000901007752909217
509,-0.00695466995239258,0.0000683026578746701
510,-0.00692844390869141,0.0000827501396352198
511,-0.00666475296020508,0.0000767485663451271
512,-0.00670671463012695,0.000103369233835698
513,-0.00671148300170898,0.0000942787978308317
514,-0.00654172897338867,0.0000701874493919893
515,-0.00657510757446289,0.0000882058525627212
516,-0.00641965866088867,0.0000931286286600777
517,-0.0063776969909668,0.0000912691731831633
518,-0.00622844696044922,0.0000700577487371498
519,-0.00610113143920898,0.0000932676904137074
520,-0.00623559951782227,0.0000599612061498608
521,-0.00611019134521484,0.0000881929628120185
522,-0.00586557388305664,0.0000913538361726993
523,-0.00575590133666992,0.0000939018164557456
524,-0.00573635101318359,0.000104893337036716
525,-0.00576353073120117,0.0000881310657665094
526,-0.00562763214111328,0.0000923711239765043
527,-0.00556182861328125,0.0000718031899756222
528,-0.00541973114013672,0.0000704154652075136
529,-0.00541353225708008,0.00010585140517958
530,-0.00531864166259766,0.0000874837008557548
531,-0.00517654418945313,0.000070250591638045
532,-0.00510406494140625,0.0000757496011440681
533,-0.00510931015014648,0.0000780339310943976
534,-0.00502443313598633,0.0000844971051728574
535,-0.00501012802124023,0.0000806108694314366
536,-0.00491094589233398,0.0000949157508973708
537,-0.00491523742675781,0.000111095894840491
538,-0.00467681884765625,0.0000792869937546788
539,-0.00459003448486328,0.000069230121368288
540,-0.0046992301940918,0.0000896124068938229
541,-0.00450801849365234,0.0000818175309987059
542,-0.00446796417236328,0.0000894549558914939
543,-0.00457525253295898,0.0000887404072297445
544,-0.00454998016357422,0.0000802022523267834
545,-0.00452136993408203,0.0000904558957973451
546,-0.00447273254394531,0.000105541633301574
547,-0.00451946258544922,0.000083859647076432
548,-0.00438308715820313,0.0000920999583935043
549,-0.00432825088500977,0.0000983418116128762
550,-0.00433683395385742,0.0000735133832573004
551,-0.00416898727416992,0.0000538308815336167
552,-0.00413227081298828,0.0000677209497400176
553,-0.00429201126098633,0.0000919344019590916
554,-0.00415658950805664,0.000109002930162274
555,-0.00406503677368164,0.0000936957715634126
556,-0.00404739379882813,0.0000760222604400584
557,-0.00411844253540039,0.0000712532581639038
558,-0.00406599044799805,0.0000747646603489671
559,-0.00419378280639648,0.0000764234754582013
560,-0.00402736663818359,0.0000882238950498827
561,-0.00394296646118164,0.0000546295998249131
562,-0.00409746170043945,0.0000741845835765625
563,-0.00399541854858398,0.0000576203992421267
564,-0.00387477874755859,0.0000714333257261414
565,-0.00404882431030273,0.000087748402522266
566,-0.00402498245239258,0.0000836315827322983
567,-0.0037379264831543,0.0000762358086335054
568,-0.00377225875854492,0.0000709975141177563
569,-0.00380229949951172,0.0000779887544336134
570,-0.00351572036743164,0.0000573732402727236
571,-0.00363969802856445,0.0000673421707157949
572,-0.00371694564819336,0.0000640223808305748
573,-0.00366449356079102,0.0000713234270116869
574,-0.00332832336425781,0.0000608355267519686
575,-0.00374698638916016,0.0000534812785022772
576,-0.00356435775756836,0.0000735783066691763
577,-0.00355863571166992,0.0000661206551043051
578,-0.00317668914794922,0.00006982530861034
579,-0.00397253036499023,0.0000694432738461797
580,-0.00333547592163086,0.0000659312515209875
581,-0.0035247802734375,0.0000688893558821037
582,-0.00303316116333008,0.0000625911209988037
583,-0.0045008659362793,0.0000635536463987203
584,-0.00342082977294922,0.0000668576030496046
585,-0.00310897827148437,0.0000607223616785874
586,-0.00376176834106445,0.0000591268462441336
587,-0.00338983535766602,0.0000582053929125486
588,-0.00343847274780273,0.0000573514392928529
589,-0.00369501113891602,0.0000483619614205918
590,-0.00358772277832031,0.0000643818460696035
591,-0.00361251831054687,0.0000536553053446207
592,-0.00339889526367187,0.0000490968636494372
593,-0.00313138961791992,0.0000400791488630631
594,-0.00365304946899414,0.0000358508932087016
595,-0.00346994400024414,0.0000508765360578504
596,-0.00359058380126953,0.0000759369724371193
597,-0.00356101989746094,0.0000701631487821165
598,-0.00353384017944336,0.0000883320725813108
599,-0.00316715240478516,0.0000658311647622006
600,-0.00372076034545898,0.0000648375808098198
601,-0.00346517562866211,0.0000681643679475021
602,-0.00348806381225586,0.0000570313986082705
603,-0.00339841842651367,0.0000506402409007549
604,-0.00346279144287109,0.0000696378183880947
605,-0.00351333618164062,0.000059516842067856
606,-0.00342702865600586,0.0000545827561536853
607,-0.00343942642211914,0.0000645106222388025
608,-0.00334787368774414,0.0000554014191587922
609,-0.00334692001342773,0.0000638659249034737
610,-0.00323963165283203,0.0000579322806074457
611,-0.00342988967895508,0.0000746581427562686
612,-0.00333213806152344,0.0000630886375556944
613,-0.00348663330078125,0.000061382482645864
614,-0.00338649749755859,0.0000557124586019641
615,-0.00338125228881836,0.0000453872834560043
616,-0.00350093841552734,0.0000581105854457272
617,-0.00350379943847656,0.0000597075527657468
618,-0.00346899032592773,0.000064593397064896
619,-0.00363731384277344,0.0000722341408481564
620,-0.00341367721557617,0.0000772373169044865
621,-0.00371122360229492,0.0000540174636294874
622,-0.00336313247680664,0.0000597998284323077
623,-0.00348901748657227,0.000067527617024548
624,-0.00361061096191406,0.0000675090953174766
625,-0.003692626953125,0.0000682959997221101
626,-0.00359773635864258,0.0000665422794588636
627,-0.00335216522216797,0.0000626854995912925
628,-0.00332069396972656,0.0000687191666515281
629,-0.00310277938842773,0.0000583994130519371
630,-0.00299310684204102,0.0000552730168354595
631,-0.00325489044189453,0.0000615156897092255
632,-0.00336027145385742,0.0000634408498447227
633,-0.00337409973144531,0.0000648761443531416
634,-0.00351810455322266,0.0000476980187899349
635,-0.00360298156738281,0.0000599090432812227
636,-0.00341892242431641,0.0000479203551232555
637,-0.00343894958496094,0.0000462482882374525
638,-0.00348281860351562,0.0000632326346333065
639,-0.0034327507019043,0.0000701761101545602
640,-0.00345802307128906,0.0000761716577866098
641,-0.00342226028442383,0.0000871738663858825
642,-0.00347280502319336,0.0000920135108492454
643,-0.00348997116088867,0.0000639673093327866
644,-0.00340032577514648,0.0000662786497264635
645,-0.00334501266479492,0.0000881542822516229
646,-0.0035243034362793,0.000103204130016501
647,-0.00346851348876953,0.0000846046729006642
648,-0.00335025787353516,0.0000706089412287406
649,-0.00344657897949219,0.0000723787916603481
650,-0.00336980819702148,0.0000607261060432501
651,-0.00349998474121094,0.0000685170363988141
652,-0.00332736968994141,0.0000498984512078392
653,-0.00335359573364258,0.0000553747359996183
654,-0.00336599349975586,0.0000775326075362371
655,-0.00352239608764648,0.0000763758577267458
656,0.000746726989746094,0.0000481971280800608
657,-0.00653362274169922,0.0000487237985516604
658,-0.00403833389282227,0.0000718364318285617
659,-0.00345134735107422,0.0000610155953414351
660,-0.00331830978393555,0.0000670443896969557
661,-0.0032954216003418,0.0000616633600644432
662,-0.00336647033691406,0.000059235382664755
663,-0.00333976745605469,0.0000600256357559933
664,-0.00336885452270508,0.0000792568768717906
665,-0.00333261489868164,0.0000861400750197864
666,-0.00328636169433594,0.0000716319882016925
667,-0.00337362289428711,0.0000590845303435482
668,-0.00336790084838867,0.0000625220619319297
669,-0.00351428985595703,0.0000545389990937527
670,-0.00330066680908203,0.0000539384822194125
671,-0.00334596633911133,0.0000610463310979012
672,-0.00330018997192383,0.0000599450879280766
673,-0.00336217880249023,0.0000659743455368054
674,-0.00344753265380859,0.0000530533573707807
675,-0.0033416748046875,0.0000419325348103519
676,-0.00332832336425781,0.0000463857423215292
677,-0.00326061248779297,0.0000614990546051134
678,-0.00328779220581055,0.0000560816045202748
679,-0.00333404541015625,0.0000538836538160911
680,-0.00321197509765625,0.0000591201161950259
681,-0.00319528579711914,0.0000643659517155703
682,-0.00324058532714844,0.0000535566888046337
683,-0.00327825546264648,0.0000604897584064461
684,-0.00318622589111328,0.0000559049627117749
685,-0.00309324264526367,0.000041994845757028
686,-0.00315952301025391,0.0000540626942630963
687,-0.00307607650756836,0.0000650528926900982
688,-0.00309848785400391,0.0000432622977823759
689,-0.00310659408569336,0.0000406753555529964
690,-0.00299453735351562,0.0000441261200385681
691,-0.00301313400268555,0.0000614176625703325
692,-0.00306606292724609,0.0000593360571440396
693,-0.00299835205078125,0.0000537748863716794
694,-0.00305080413818359,0.0000646409006250708
695,-0.00310802459716797,0.0000634229271814714
696,-0.00302505493164062,0.0000475368622585942
697,-0.00310611724853516,0.0000488205341309748
698,-0.0030217170715332,0.0000450630036214133
699,-0.00314044952392578,0.0000433594192235362
700,-0.00322675704956055,0.0000583945460691506
701,-0.00312328338623047,0.0000628521299332864
702,-0.00320339202880859,0.0000558663114584409
703,-0.00324630737304687,0.000060445575443512
704,-0.00333786010742187,0.0000691479646909128
705,-0.00322675704956055,0.0000571170508277475
706,-0.00334501266479492,0.0000679170799852059
707,-0.00324678421020508,0.0000538034194908233
708,-0.00336933135986328,0.0000544231860805784
709,-0.00340175628662109,0.0000431926036146436
710,-0.00341463088989258,0.0000452894902397167
711,-0.00335216522216797,0.0000475667472541018
712,-0.0034022331237793,0.0000569955059724664
713,-0.00338029861450195,0.0000473535551698197
714,-0.00335550308227539,0.0000526921241822467
715,-0.0033564567565918,0.0000408781846985794
716,-0.00331783294677734,0.000045403561847129
717,-0.00333213806152344,0.0000655265174343181
718,-0.00316429138183594,0.0000669850140792457
719,-0.00318622589111328,0.0000513137491172722
720,-0.00311279296875,0.0000624565671159094
721,-0.00315523147583008,0.0000515414429080231
722,-0.00312519073486328,0.0000516692172402167
723,-0.00307226181030273,0.0000547107005107084
724,-0.00294113159179687,0.0000510761379236716
725,-0.00296211242675781,0.0000456806513348952
726,-0.00298929214477539,0.0000580273793966161
727,-0.00291013717651367,0.000066769122013214
728,-0.00282955169677734,0.0000610211848122936
729,-0.00288057327270508,0.000053401504074408
730,-0.00293350219726562,0.0000616799508553319
731,-0.00284147262573242,0.0000397751936982588
732,-0.00293207168579102,0.0000448645234217551
733,-0.0029902458190918,0.000056374777591648
734,-0.00295305252075195,0.0000439505751922313
735,-0.00289249420166016,0.000035640985975173
736,-0.00297927856445312,0.0000386480855593838
737,-0.00295829772949219,0.0000472910929421136
738,-0.00305843353271484,0.0000407925758408475
739,-0.00302886962890625,0.0000420212322938314
740,-0.00311660766601562,0.0000475679422633913
741,-0.00319671630859375,0.0000591326142480082
742,-0.00318717956542969,0.0000543468862402216
743,-0.0031580924987793,0.0000425942648695855
744,-0.00315189361572266,0.0000560674125481139
745,-0.00319385528564453,0.0000474890071477989
746,-0.00325489044189453,0.0000461510877955707
747,-0.0031585693359375,0.0000525884589469594
748,-0.00318717956542969,0.0000611839864057367
749,-0.00319290161132812,0.0000421589850558543
750,-0.00306892395019531,0.0000324108991011933
751,-0.00313282012939453,0.0000483278635380551
752,-0.00317287445068359,0.0000541026340469524
753,-0.00303983688354492,0.000055260674516697
754,-0.00301361083984375,0.00005135804048033
755,-0.00303506851196289,0.0000439298767392356
756,-0.00297784805297852,0.000044634607024523
757,-0.00291156768798828,0.0000486093327994334
758,-0.00287294387817383,0.0000506996982326891
759,-0.00291633605957031,0.0000434353896263199
760,-0.00289201736450195,0.0000601467277841409
761,-0.00286674499511719,0.0000587507113154044
762,-0.00289154052734375,0.0000500724427116605
763,-0.00280475616455078,0.0000521106880190477
764,-0.00272750854492187,0.0000518361689320343
765,-0.00271892547607422,0.0000508564210121668
766,-0.00284576416015625,0.0000424806781793096
767,-0.00283908843994141,0.0000379010558959969
768,-0.00275087356567383,0.0000534621434957405
769,-0.00272274017333984,0.0000478895038328668
770,-0.00281286239624023,0.0000561292227537619
771,-0.00289487838745117,0.0000566493782420053
772,-0.00289297103881836,0.0000612768216887065
773,-0.00289201736450195,0.0000410183904469819
774,-0.00294160842895508,0.0000599820585956833
775,-0.00294589996337891,0.0000489542494495796
776,-0.00294160842895508,0.0000500656309067028
777,-0.00293302536010742,0.0000386392597804244
778,-0.00292682647705078,0.000049655212581424
779,-0.00290250778198242,0.000044728748811307
780,-0.00305795669555664,0.0000346298369575496
781,-0.00300312042236328,0.0000440332717083589
782,-0.00303554534912109,0.0000381752743638261
783,-0.00310277938842773,0.000043749646854359
784,-0.00306606292724609,0.0000433908713845169
785,-0.00315427780151367,0.0000575473507889866
786,-0.00315618515014648,0.0000500894681712468
787,-0.00309991836547852,0.0000447782844344906
788,-0.00306177139282227,0.0000523305699093588
789,-0.00304698944091797,0.0000527751251759943
790,-0.00314569473266602,0.0000429365317706697
791,-0.00312900543212891,0.0000530447851688552
792,-0.00310659408569336,0.0000425582172460493
793,-0.00311994552612305,0.0000389228827231264
794,-0.00300741195678711,0.0000568026948425617
795,-0.00304365158081055,0.0000414752401025693
796,-0.00309658050537109,0.0000409150178473723
797,-0.00310373306274414,0.0000495624000896946
798,-0.00300788879394531,0.0000490458948266995
799,-0.00293350219726562,0.0000503802772816189
800,-0.00299167633056641,0.0000731055281171894
801,-0.00299310684204102,0.0000526187157375799
802,-0.00297212600708008,0.0000601230961627602
803,-0.00302934646606445,0.0000449468030711097
804,-0.00294399261474609,0.0000570871867421039
805,-0.00296258926391602,0.0000411712369310092
806,-0.00283050537109375,0.0000464530931886564
807,-0.00285673141479492,0.0000555428305761758
808,-0.0029749870300293,0.0000477528071532991
809,-0.00299215316772461,0.0000432570417627012
810,-0.00288915634155273,0.0000618161952039994
811,-0.00298023223876953,0.000067902013156002
812,-0.00295257568359375,0.0000490586419967636
813,-0.00305986404418945,0.0000342012261961133
814,-0.00298213958740234,0.0000412959974966473
815,-0.00300836563110352,0.0000447820925974804
816,-0.00307941436767578,0.0000378500288711772
817,-0.00301551818847656,0.0000542453354745695
818,-0.00306892395019531,0.0000585520305227159
819,-0.00304508209228516,0.0000658587900948317
820,-0.00310039520263672,0.0000450402923203715
821,-0.00300693511962891,0.0000509412971746265
822,-0.00301361083984375,0.0000547055053553463
823,-0.00312709808349609,0.0000638481215622019
824,-0.00317478179931641,0.000047714700168953
825,-0.00308465957641602,0.0000639655320434448
826,-0.0031590461730957,0.0000521782750745678
827,-0.00302457809448242,0.0000539469124124416
828,-0.00304555892944336,0.0000471092428209546
829,-0.0030207633972168,0.0000447605087232936
830,-0.00303745269775391,0.0000520113286081586
831,-0.00293493270874023,0.000036629660915582
832,-0.00303888320922852,0.000038998021380846
833,-0.00299453735351562,0.0000602817226108688
834,-0.00292491912841797,0.0000486069939569464
835,-0.0029149055480957,0.0000499929139025923
836,-0.00283575057983398,0.0000466862297985051
837,-0.00288772583007812,0.0000413462087599328
838,-0.00283575057983398,0.0000513591472750175
839,-0.00282621383666992,0.000043775624914278
840,-0.00278854370117187,0.0000504186244502499
841,-0.00272893905639648,0.000060948481708356
842,-0.00263690948486328,0.0000690228992549722
843,-0.00268840789794922,0.000052965426531074
844,-0.00263786315917969,0.0000724682674121048
845,-0.00261449813842773,0.0000779304232703039
846,-0.00257539749145508,0.0000730961968862985
847,-0.00253868103027344,0.0000662168706391905
848,-0.00263166427612305,0.0000656132088137911
849,-0.00249528884887695,0.0000613509887718793
850,-0.00256156921386719,0.0000716446838441692
851,-0.00246906280517578,0.0000595989224548076
852,-0.00248336791992187,0.0000520441054175927
853,-0.00255489349365234,0.0000456445504752356
854,-0.00251245498657227,0.0000372940313278982
855,-0.00256109237670898,0.0000367760175244031
856,-0.00264215469360352,0.0000508228782443017
857,-0.00261497497558594,0.0000517285907352373
858,-0.00263881683349609,0.0000581956260875931
859,-0.00261354446411133,0.0000540774123522301
860,-0.00268363952636719,0.0000426409479151281
861,-0.00270986557006836,0.0000635661669939416
862,-0.00264596939086914,0.0000478217986655461
863,-0.00275325775146484,0.0000411387786612928
864,-0.00265026092529297,0.0000405605994614171
865,-0.00272130966186523,0.0000585714436828006
866,-0.00279760360717773,0.0000515745183416448
867,-0.00279855728149414,0.0000591249234511299
868,-0.00279140472412109,0.0000489449593366865
869,-0.00284337997436523,0.0000556706105869962
870,-0.00287771224975586,0.000065720547309952
871,-0.00288105010986328,0.0000475858638015446
872,-0.00292205810546875,0.0000598910128229162
873,-0.0028834342956543,0.0000600578246392068
874,-0.0028691291809082,0.0000508206412726136
875,-0.00285577774047852,0.0000523077539514567
876,-0.00281572341918945,0.0000486245325334491
877,-0.00287866592407227,0.0000445683343717496
878,-0.0028386116027832,0.0000511050655314978
879,-0.00277948379516602,0.0000704429066185737
880,-0.00277566909790039,0.000071769932725975
881,-0.00274991989135742,0.000055067982615912
882,-0.0027923583984375,0.0000493232667247909
883,-0.00281429290771484,0.0000586150997848247
884,-0.00273370742797852,0.0000638142815299858
885,-0.00270652770996094,0.0000772432043438505
886,-0.00265645980834961,0.0000664465351222822
887,-0.00266218185424805,0.0000559303766011636
888,-0.00257968902587891,0.0000787777703260734
889,-0.002655029296875,0.0000571518725378246
890,-0.0025029182434082,0.0000579950437019752
891,-0.00242090225219727,0.0000657378435566156
892,-0.00241279602050781,0.0000795132216639127
893,-0.00241613388061523,0.000076247737719935
894,-0.00239276885986328,0.0000480293621049594
895,-0.00236082077026367,0.0000601665711731332
896,-0.00239944458007812,0.0000628665986558384
897,-0.00236797332763672,0.0000671680613695573
898,-0.00224971771240234,0.0000531036911116797
899,-0.00226640701293945,0.000053058714293699
900,-0.00224924087524414,0.0000496678033712117
