Wavelength (nm),Absorbance (AU),Std.Dev.
200,-0.029083251953125,0.0439290334431347
201,0.0315370559692383,0.0265698591023687
202,0.0217833518981934,0.0103203573059911
203,0.00217914581298828,0.0028210195674772
204,-0.00136613845825195,0.00128796744072702
205,0.00151300430297852,0.000963450864645969
206,0.00121879577636719,0.000988470432584336
207,0.000658035278320313,0.000734088907923884
208,0.000929832458496094,0.000520199399833093
209,0.000536918640136719,0.000296204549071467
210,0.000550746917724609,0.00026565607630689
211,0.000512599945068359,0.000232473641879571
212,0.000430583953857422,0.000255242873509523
213,0.00041961669921875,0.000284661799244579
214,0.000674724578857422,0.000255463699613895
215,0.000145435333251953,0.000327403490437957
216,0.000515460968017578,0.000398302623415482
217,0.000496864318847656,0.000310042439062436
218,0.000241756439208984,0.000280613704725019
219,0.000262737274169922,0.000268712864156438
220,0.000301837921142578,0.00028721909307985
221,0.000929355621337891,0.000294572691379821
222,0.000414371490478516,0.000261167503059172
223,0.000266551971435547,0.000264427594385122
224,0.000258922576904297,0.00022603892000317
225,0.000330924987792969,0.000273450208266447
226,0.000355243682861328,0.000261633731071201
227,0.000218868255615234,0.000238483420137896
228,0.000245571136474609,0.00029914986323856
229,0.000458717346191406,0.0002506476730785
230,0.000443935394287109,0.000169096433815261
231,0.000252246856689453,0.000190233525393251
232,0.000173091888427734,0.000162337668082834
233,0.000603675842285156,0.000186198652067044
234,0.000485420227050781,0.000164593799037844
235,-0.000049591064453125,0.000147625580587793
236,0.000186920166015625,0.000134539078169448
237,0.000164985656738281,0.000105541633301574
238,0.000311851501464844,0.000173772964204058
239,0.000276088714599609,0.000189212445258206
240,0.000268936157226562,0.000206469938880944
241,0.000384807586669922,0.000137382073252633
242,0.000185966491699219,0.000111661375894286
243,0.000159263610839844,0.000136368758031857
244,0.000164985656738281,0.000139122092955899
245,0.000225543975830078,0.000166606657424335
246,0.000237464904785156,0.00018088162538406
247,0.000213146209716797,0.000206602045835967
248,0.000508785247802734,0.000187541939594755
249,0.000242233276367187,0.000216175060463728
250,0.0000286102294921875,0.000210639002872902
251,0.000180244445800781,0.000190042191650704
252,0.000504493713378906,0.000292123379546982
253,0.000397682189941406,0.000227650669000609
254,0.0001373291015625,0.000193532454147651
255,0.0000634193420410156,0.000205502985336282
256,0.000440120697021484,0.000223432683778171
257,0.000205516815185547,0.000254071438680217
258,-0.000174522399902344,0.000223416400970703
259,-0.00000762939453125,0.000306436794410611
260,0.000377178192138672,0.00025918194125546
261,0.000148773193359375,0.000226954451245637
262,-0.000210285186767578,0.000247896627668456
263,0.000049591064453125,0.000288590105219757
264,0.000116348266601562,0.000372455913997914
265,0.000130653381347656,0.000324596891868961
266,0.000382423400878906,0.000363588880319653
267,-0.000169277191162109,0.000362044716049709
268,0.000150203704833984,0.000233406796465309
269,0.0006561279296875,0.000273696221414958
270,0.000170230865478516,0.000246830369043935
271,-0.000080108642578125,0.000308743130617374
272,0.000693321228027344,0.0003438098419185
273,0.000689983367919922,0.000244237463342303
274,0.000271797180175781,0.000259931803374091
275,-0.0000362396240234375,0.000258134112102008
276,0.000110149383544922,0.000220746250549335
277,0.000245571136474609,0.000214769488743434
278,0.0001678466796875,0.00029840711663964
279,0.000541210174560547,0.00026922683698416
280,0.0000109672546386719,0.000206857213384046
281,-0.000341415405273437,0.000186183997871389
282,0.0000429153442382813,0.000209994666861238
283,-0.000154018402099609,0.000284559540849094
284,0.000307083129882812,0.000190271769053565
285,0.0000777244567871094,0.000177941418864532
286,0.0000457763671875,0.000202345329781573
287,0.000131130218505859,0.000293508667933217
288,-0.000174045562744141,0.000206399447264386
289,0.000241279602050781,0.000247073439250355
290,0.000267505645751953,0.000177516682109115
291,0.000245571136474609,0.000138082029706865
292,0.000313282012939453,0.000188229316532431
293,0.000182151794433594,0.000175170009557615
294,0.0000371932983398437,0.000222167228603178
295,0.0000905990600585938,0.00020828998118962
296,0.000261306762695312,0.000193903354719027
297,0.000139713287353516,0.000254164493345407
298,0.000394821166992187,0.000199926169256345
299,0.000106334686279297,0.000279236100410382
300,0.00012969970703125,0.000226010752908738
301,-0.0000443458557128906,0.000231218333095834
302,0.00008392333984375,0.000338569157237709
303,0.000261783599853516,0.000227922176138844
304,0.000270843505859375,0.000231630981189884
305,0.000146865844726562,0.000340988915734014
306,0.000412940979003906,0.000376081560385658
307,0.000243663787841797,0.000233570396649805
308,0.000151157379150391,0.000216964574929557
309,0.000618934631347656,0.000233640475946295
310,0.000336647033691406,0.000147834900086561
311,0.000353336334228516,0.000156684365796198
312,0.000435352325439453,0.000209274479736956
313,0.000586032867431641,0.000235748599647888
314,0.00032806396484375,0.000276328676003863
315,0.000223636627197266,0.000180453728978589
316,0.000328540802001953,0.000190672864374224
317,0.000532627105712891,0.000203090090170353
318,0.000396728515625,0.000275768578673215
319,0.000642299652099609,0.000188673322511139
320,0.000529289245605469,0.000135576133308303
321,0.000372409820556641,0.000162933240469985
322,0.000314712524414062,0.000157740153578928
323,0.000323295593261719,0.000191353747528963
324,0.000601291656494141,0.000237834214279749
325,0.000572681427001953,0.000222142664809792
326,0.000508308410644531,0.000174998587417436
327,0.000451087951660156,0.000205556086883767
328,0.000200271606445312,0.000246557550820295
329,0.000400543212890625,0.000277143729054307
330,0.000323295593261719,0.000274631710894109
331,-0.0000162124633789062,0.000230852228806842
332,0.000514984130859375,0.000199589248051227
333,0.000582218170166016,0.000160288227360538
334,0.0000615119934082031,0.000194011205159842
335,0.000313758850097656,0.00018710983151627
336,0.000240802764892578,0.000228288995356746
337,0.000209331512451172,0.000257131536066825
338,0.00003814697265625,0.000256338005792529
339,0.000349044799804687,0.000185076712360502
340,0.0000815391540527344,0.000187914984211041
341,0.000124454498291016,0.000158594060347575
342,0.000115394592285156,0.000198986837093277
343,0.000101089477539062,0.000216633161384593
344,0.000329017639160156,0.00024731627055985
345,0.000283241271972656,0.000192840398687857
346,0.000206470489501953,0.000190161797799904
347,0.000236988067626953,0.000256940462777456
348,0.0000271797180175781,0.000175387940872125
349,0.000177383422851562,0.000163810047558471
350,0.000133037567138672,0.000256905063239824
351,0.000145912170410156,0.000226513209561425
352,0.000135421752929687,0.000252296879068457
353,0.00038909912109375,0.000243603592545923
354,0.000306606292724609,0.000143612713058784
355,0.000354766845703125,0.00012162432559725
356,0.000104904174804687,0.000158094351257159
357,0.000380992889404297,0.000172625588785643
358,-0.000164031982421875,0.000192509974047693
359,-0.000138759613037109,0.000250959536795021
360,-0.000155448913574219,0.000267770282721908
361,-0.000442028045654297,0.000272183394841816
362,-0.000616073608398438,0.000289282606631527
363,0.000161170959472656,0.000293397093600813
364,0.0000848770141601563,0.000298047255500811
365,0.000091552734375,0.000298047255500811
366,-0.000235557556152344,0.000245626221191486
367,0.000371456146240234,0.000188379044147103
368,0.000303745269775391,0.000203827667349129
369,0.000205039978027344,0.000154548212082705
370,0.000221729278564453,0.000203849976512152
371,0.000424861907958984,0.000184978403253194
372,0.0000767707824707031,0.000192543042028706
373,0.000174045562744141,0.000206417072425364
374,0.000116348266601562,0.000136828171207525
375,-0.0000667572021484375,0.00020046678750491
376,-0.0000400543212890625,0.000195900583041528
377,0.000211715698242187,0.0002760981852961
378,0.000335216522216797,0.000179584749143317
379,0.000283241271972656,0.000200053504985081
380,0.000297069549560547,0.000237765371054747
381,0.000080108642578125,0.00021534042087958
382,-0.000119209289550781,0.000166541137336297
383,-0.000166893005371094,0.000162116218797295
384,-0.0000104904174804687,0.000207296419818016
385,0.000212192535400391,0.000253555440641538
386,-0.000119686126708984,0.000189673330817303
387,-0.0002899169921875,0.00014752080946098
388,-0.000125885009765625,0.000188306610167362
389,-0.000103950500488281,0.000258141158689386
390,-0.000107765197753906,0.000168921540288454
391,-0.0001678466796875,0.000125903070483608
392,-0.000163555145263672,0.0001754242364361
393,-0.0002593994140625,0.000167553819575463
394,-0.000100135803222656,0.000178334547218411
395,0.0000510215759277344,0.000188890119250722
396,-0.000129222869873047,0.000172438452149641
397,-0.000163078308105469,0.000254743529772401
398,0.000105857849121094,0.000188113316531768
399,0.000248432159423828,0.000163637841007508
400,-0.000174522399902344,0.000254164493345407
401,-0.0000891685485839844,0.000164300676332516
402,-0.000235557556152344,0.000177485938853215
403,-0.000284194946289062,0.000158146118523515
404,0.0000929832458496094,0.000121717763471607
405,0.0000777244567871094,0.000169630755981019
406,-0.000329971313476562,0.000198350502417547
407,-0.000181198120117187,0.000231053067507591
408,-0.000329971313476562,0.000287326735737091
409,-0.000169754028320312,0.000174686479825673
410,-0.000448703765869141,0.000163044842414965
411,0.0000286102294921875,0.000191852158134201
412,-0.0000505447387695313,0.000224804320685156
413,-0.000108242034912109,0.000263338474250882
414,-0.000224113464355469,0.000239655148947316
415,-0.000234603881835937,0.00021118665011203
416,0.0000634193420410156,0.000181178041650716
417,-0.000170230865478516,0.000129541833947232
418,-0.000286579132080078,0.000143222705964476
419,-0.000121593475341797,0.000135927866409052
420,-0.000179290771484375,0.00014794867011085
421,-0.000153064727783203,0.000187406102898661
422,0.000166416168212891,0.000163534986182263
423,-0.0000858306884765625,0.000162936031450234
424,-0.000215053558349609,0.000144080590531713
425,-0.000324726104736328,0.000158335787029878
426,-0.000169277191162109,0.000187658292789442
427,0.0000481605529785156,0.000162502857408653
428,-0.0000767707824707031,0.000160837675320577
429,-0.000100612640380859,0.000172248472159368
430,0.0000429153442382813,0.000203394385381808
431,0.0000300407409667969,0.000149933253628811
432,-0.000189304351806641,0.000206452318233258
433,-0.000102996826171875,0.000171016435247938
434,0.0000362396240234375,0.000149581012024641
435,0.0000638961791992188,0.000153662947542434
436,0.0001678466796875,0.000181629270280722
437,-0.000123977661132812,0.000217934926792348
438,-0.00006866455078125,0.000169373202967062
439,0.0000157356262207031,0.000133016201751105
440,-0.0000166893005371094,0.000183680743293815
441,0.000072479248046875,0.000157584400678519
442,-0.0000281333923339844,0.000107244906632532
443,0.000125885009765625,0.000147428302516747
444,-0.0000357627868652344,0.000168484861728693
445,-0.0000805854797363281,0.000166390889824743
446,0.0000634193420410156,0.000193950253584078
447,0.000202655792236328,0.000142292554446355
448,-0.000182628631591797,0.000159816581461027
449,0.0000524520874023438,0.000140572370633138
450,-0.0000576972961425781,0.000140316575300213
451,-0.000126361846923828,0.000134997980852033
452,-0.00000905990600585938,0.000115337436487386
453,0.000169754028320312,0.000118393970892628
454,0.0000171661376953125,0.000110958685004375
455,0.000128269195556641,0.000135804026312004
456,0.000072479248046875,0.000164544060291091
457,0.0000262260437011719,0.00015109945565291
458,0.0000929832458496094,0.000120868579021094
459,0.0000677108764648438,0.000105909386538519
460,-0.000195503234863281,0.0000948558437031666
461,-0.0000538825988769531,0.000108852638804476
462,0.0000638961791992188,0.000103692074742285
463,-0.0000662803649902344,0.0000997125673111552
464,-0.0000262260437011719,0.0000825603297137143
465,-0.0000262260437011719,0.000108129594185135
466,0.00000715255737304688,0.0000992646241065159
467,0.0000362396240234375,0.0000995847891403703
468,0.0000638961791992188,0.0000980825173412834
469,0.0000333786010742187,0.000105576097283325
470,-0.000011444091796875,0.000114148481570934
471,0.0000348091125488281,0.000110327794962004
472,0.0000667572021484375,0.00014203665539123
473,0.0000314712524414062,0.000114442904772996
474,0.0000352859497070312,0.000118689356876516
475,-0.0000500679016113281,0.000132773249581626
476,0.0000410079956054688,0.000126130413950847
477,0.000101089477539062,0.0000839720931193543
478,0.0000929832458496094,0.000114883124804202
479,-0.0000872611999511719,0.000118370922846423
480,0.000144481658935547,0.0000874343051425031
481,-0.000152587890625,0.0000680759153657441
482,-0.000121116638183594,0.0000862165888770261
483,0.0000324249267578125,0.0000991385620972442
484,0.0000619888305664063,0.0000787590073564085
485,0.000111103057861328,0.0000775487352688491
486,0.000121593475341797,0.0000675747402801256
487,0.00006866455078125,0.0000858492301410847
488,0.000137805938720703,0.0000852125479332687
489,0.0000362396240234375,0.0000752587420522753
490,0.0000853538513183594,0.0000995756558538705
491,-0.00003814697265625,0.0000885993722946283
492,0,0.0000995482509666434
493,-0.0000691413879394531,0.000102047608180202
494,-0.0000510215759277344,0.000103208536212682
495,0.0000624656677246094,0.000105948023149474
496,-0.0000166893005371094,0.0001179764898977
497,-0.0000696182250976563,0.000107725102215183
498,0.000121116638183594,0.0000889809312509384
499,0.0000748634338378906,0.000114458797965417
500,0.000133514404296875,0.000115349264148442
501,0.0000395774841308594,0.0000976596958327324
502,0.000145912170410156,0.00011234752988475
503,-0.0000696182250976563,0.000111259505834245
504,0.0000762939453125,0.0000891672736092056
505,0.0000219345092773437,0.0000900048293631596
506,0.000119209289550781,0.0000718949634108746
507,0.000133991241455078,0.0000828160585035877
508,-0.0000357627868652344,0.000104022657216317
509,0.0000767707824707031,0.0000852738970280472
510,0.0000662803649902344,0.0000853325374993004
511,0.000144481658935547,0.0000882496636326824
512,0.0000157356262207031,0.0000974569298234594
513,0.000123977661132812,0.0000742504512341309
514,0.000103473663330078,0.0000741738553986503
515,0.0000166893005371094,0.000111844490826258
516,-0.0000271797180175781,0.000115882221551355
517,-0.0000095367431640625,0.000091388674606763
518,0.0000681877136230469,0.0000682443770145477
519,0.000126838684082031,0.000107437665683647
520,0.0000596046447753906,0.0000711941990121423
521,-0.000034332275390625,0.0000995162690599151
522,0.000111103057861328,0.0000997057262033079
523,0.0000820159912109375,0.000105864292670366
524,-0.0000238418579101562,0.000114285840820992
525,0.000108718872070312,0.0000867135943604443
526,0.0000252723693847656,0.0000873328264117667
527,0.0000715255737304688,0.0000879683788075861
528,0.000183582305908203,0.0000913538361726993
529,0.0000700950622558594,0.000101462163043017
530,0.000212669372558594,0.0000700431423840951
531,0.000104904174804687,0.0000808938463621073
532,0.000151634216308594,0.0000711510708545104
533,0.0000224113464355469,0.0000643765483876217
534,-0.0000252723693847656,0.00009496843796826
535,-0.00000476837158203125,0.0000835268451295758
536,0.00011444091796875,0.0000966298471268157
537,0.000034332275390625,0.0000940590756466177
538,0.000146865844726562,0.0000915850145334969
539,0.000134944915771484,0.0000952409859678715
540,0.000034332275390625,0.000086556124022824
541,0.00011444091796875,0.0000687605134300681
542,0.0000276565551757812,0.0000890652164925426
543,0.0000414848327636719,0.0000919418213090674
544,0.0000777244567871094,0.0000745575725009616
545,0.0000481605529785156,0.0000667095013905436
546,0.0000901222229003906,0.0000829134674044339
547,-0.0000109672546386719,0.0000705283907208408
548,0.0000410079956054688,0.0000940107162214948
549,0.000205516815185547,0.0000946686896036405
550,0.0000615119934082031,0.0000561818597280559
551,0.000194072723388672,0.0000564745123524074
552,0.000162124633789062,0.0000772064004822124
553,0.0000853538513183594,0.0000860079947264794
554,0.000113964080810547,0.000109539780903972
555,0.0000553131103515625,0.000104061994343081
556,0.000191211700439453,0.0000704090068506068
557,0.0000782012939453125,0.000100681543485438
558,0.0000205039978027344,0.000074114055693624
559,0.0000171661376953125,0.0000616246308488161
560,0.0000691413879394531,0.0000690245463240251
561,0.0000133514404296875,0.0000561585840743457
562,0.0000314712524414062,0.0000642846525321615
563,0.000145912170410156,0.0000580704656473372
564,0.0000576972961425781,0.0000706314789091943
565,0.0000252723693847656,0.0000916445788005057
566,0.0000910758972167969,0.0000849078154664137
567,0.000125408172607422,0.0000718364318285617
568,0.0000672340393066406,0.0000781867548755333
569,0.0000615119934082031,0.0000868472196549947
570,0.0000352859497070312,0.0000626092817770762
571,0.000147342681884766,0.0000666242365209747
572,0.0000853538513183594,0.0000647779374502218
573,0.0000324249267578125,0.0000703072094748175
574,0.000168800354003906,0.0000572462818370181
575,0.0000529289245605469,0.000053358908945931
576,0.000113010406494141,0.0000649409495782212
577,0.0000810623168945313,0.000068149355790084
578,0.0000352859497070312,0.0000701210077755582
579,0.000110149383544922,0.0000822609746773404
580,0.0000629425048828125,0.000071336177568573
581,0.0000791549682617188,0.0000700285329844888
582,0.000166893005371094,0.0000777186058042053
583,0.0000410079956054688,0.0000733182680839427
584,0.0000863075256347656,0.0000627271986744596
585,0.00000905990600585938,0.0000626909401750865
586,0.0000896453857421875,0.0000688563423392666
587,0.0000514984130859375,0.0000577937651677158
588,0.000087738037109375,0.000050222068671967
589,0.0000977516174316406,0.0000464151438091559
590,0.0000324249267578125,0.0000696916715335691
591,0.0000934600830078125,0.0000555847747927466
592,0.000142097473144531,0.0000619025730664307
593,0.00003814697265625,0.0000454098212129785
594,0.0000753402709960938,0.0000581281902687857
595,0.0000605583190917969,0.0000565348720322733
596,0.000139236450195312,0.0000840641054956017
597,0.0000662803649902344,0.0000816645411082768
598,0.0000548362731933594,0.0000941508901223448
599,0.0000529289245605469,0.0000797958169775351
600,0.000072479248046875,0.0000694972777435572
601,0.0000414848327636719,0.0000705606219585716
602,0.00008392333984375,0.0000704380647934536
603,0.0000796318054199219,0.0000663712105361743
604,0.0000901222229003906,0.0000676369599399458
605,0.0000896453857421875,0.0000679338169873538
606,0.000034332275390625,0.0000627435081631887
607,0.0000615119934082031,0.0000816116234047491
608,0.000154972076416016,0.0000750621054692932
609,0.0000710487365722656,0.0000696688298286018
610,0.0000996589660644531,0.0000595626683245534
611,0.000164985656738281,0.0000772137626579419
612,0.000145435333251953,0.0000683309477852223
613,0.0000734329223632813,0.0000590672105557616
614,0.0000786781311035156,0.0000571120745645865
615,0.0000658035278320313,0.0000482607733506494
616,0.0000338554382324219,0.0000659140060258006
617,0.0000987052917480469,0.000075692548337459
618,0.0000386238098144531,0.0000687753921853271
619,0.000103950500488281,0.0000772991126532038
620,-0.0000414848327636719,0.0000800163441229726
621,-0.0000152587890625,0.0000721979328619324
622,0.000152111053466797,0.000058567561565568
623,0.0000543594360351563,0.0000532629453607779
624,0.0000920295715332031,0.0000689355482807205
625,0.000184535980224609,0.0000634408498447227
626,0.000217437744140625,0.0000695757540396539
627,0.0000176429748535156,0.0000816311233918461
628,-0.0000391006469726562,0.0000717715167539772
629,0.0000910758972167969,0.000074320849682592
630,0.0000748634338378906,0.000062882871989384
631,0.0000581741333007813,0.0000735365767701107
632,0.0000591278076171875,0.0000663592191960475
633,0.0000309944152832031,0.0000672965739653832
634,0.0000424385070800781,0.0000500190587450384
635,0.0000329017639160156,0.0000709526641359477
636,0.000136375427246094,0.0000622121748807635
637,0.0000834465026855469,0.0000492725320999957
638,0.0000252723693847656,0.0000769009877999173
639,0.000117778778076172,0.0000739574278653766
640,0.0000767707824707031,0.0000799836591577978
641,0.0000433921813964844,0.0000712596400052211
642,0.0000643730163574219,0.0000902243444321908
643,0.000144004821777344,0.0000848783535798074
644,0.000107765197753906,0.0000691709783966653
645,0.000141143798828125,0.000091401113686515
646,0.0000429153442382813,0.000083638379340387
647,0.000178337097167969,0.000080182404845657
648,0.0000491142272949219,0.0000837294006603485
649,0.0000286102294921875,0.0000620438258431403
650,0.000104904174804687,0.0000582922455620075
651,0.00005340576171875,0.0000546857592638807
652,0.000115871429443359,0.000046916996408188
653,0.0000963211059570313,0.0000561008593114688
654,0.0000348091125488281,0.0000862745886070148
655,0.0000472068786621094,0.0000815628530405729
656,0.000110626220703125,0.0000505098636437556
657,0.0000581741333007813,0.0000523436031343941
658,0.000104904174804687,0.000067938837283969
659,-0.00000810623168945313,0.000059911889699663
660,0.000147819519042969,0.0000776073533166528
661,0.000140666961669922,0.0000784552915227758
662,0.0000524520874023438,0.000069346616612668
663,0.0000567436218261719,0.0000517033103600348
664,0.0000925064086914063,0.000058162406614964
665,0.000102519989013672,0.0000735860318313236
666,0.000187397003173828,0.0000839450114618888
667,0.0000410079956054688,0.000064677823717288
668,0.0000596046447753906,0.0000711382871198064
669,0.0001220703125,0.0000546254375696823
670,0.000127792358398437,0.000052939663046843
671,0.000162601470947266,0.0000612731109779702
672,0.0000858306884765625,0.0000505267417104706
673,0.000111579895019531,0.0000665200653773036
674,0.0000858306884765625,0.0000671087951724966
675,0.000109195709228516,0.0000546514464641358
676,0.0000939369201660156,0.000048174714376414
677,0.000192642211914062,0.0000505256166814309
678,0.0000905990600585938,0.0000447185808755513
679,0.000102043151855469,0.0000497638461746071
680,0.0000844001770019531,0.0000649146849872155
681,0.0000891685485839844,0.0000766789141373725
682,0.000161170959472656,0.0000593168942262345
683,0.00006866455078125,0.0000607485673846008
684,0.0000848770141601563,0.000061759156451171
685,0.000183582305908203,0.0000471080361756457
686,0.0000143051147460937,0.0000538414401280602
687,0.000134944915771484,0.0000619943322894678
688,0.0000705718994140625,0.0000529342940760021
689,0.0000395774841308594,0.0000456918492503833
690,0.000123023986816406,0.0000519894659217752
691,0.0000844001770019531,0.000066809973975643
692,0.0000104904174804687,0.000062692753598097
693,0.000109672546386719,0.0000570104639835818
694,0.0000720024108886719,0.0000706041107897934
695,0.0000600814819335938,0.0000688794534806896
696,0.0000629425048828125,0.0000615064485401693
697,0.0000662803649902344,0.0000663712105361743
698,0.000105381011962891,0.0000651855754495051
699,0.000194549560546875,0.0000668508009737858
700,0.0000329017639160156,0.0000802532661678326
701,0.0000867843627929688,0.0000801668069490294
702,0.000200748443603516,0.0000600899962795493
703,0.000112533569335937,0.0000717936894763225
704,0.00000667572021484375,0.0000608299202215748
705,0.000147342681884766,0.0000578478354680257
706,0.0000357627868652344,0.0000774915399798956
707,0.0000729560852050781,0.0000760865372484524
708,0.000110149383544922,0.0000679622604314616
709,0.0000314712524414062,0.0000449480677354526
710,0.000140190124511719,0.0000502786288951663
711,0.0000891685485839844,0.0000454198344041064
712,0.0000848770141601563,0.0000542662893286709
713,0.0000667572021484375,0.0000706379169256974
714,0.0000615119934082031,0.0000649321958949784
715,0.0000195503234863281,0.0000529557666933366
716,0.0000185966491699219,0.000051344757083139
717,0.000147819519042969,0.0000690393681772688
718,0.0000467300415039063,0.0000737172357260719
719,0.0000815391540527344,0.0000651785988801642
720,0.000125408172607422,0.0000686513040268524
721,0.0000905990600585938,0.000054322824362693
722,0.0000867843627929688,0.0000444444462831193
723,0.000102043151855469,0.000052771893815067
724,0.000147342681884766,0.0000616817940010795
725,0.0000820159912109375,0.0000511628716799615
726,0.0000329017639160156,0.0000640081733672474
727,0.000149250030517578,0.0000691644038335484
728,0.000134468078613281,0.0000686165191291646
729,0.000113010406494141,0.0000553531748270619
730,0.0000815391540527344,0.0000603524033801708
731,0.0000638961791992188,0.0000554219359239879
732,0.0000705718994140625,0.0000535535046024367
733,0.0000982284545898438,0.0000607869196425347
734,0.0000452995300292969,0.00005330455079237
735,0.000105857849121094,0.0000472128989494156
736,0.000121116638183594,0.0000418042350660394
737,0.000125885009765625,0.0000469339553808757
738,0.0000791549682617188,0.0000474961884882358
739,0.000145435333251953,0.0000506312601441513
740,0.0000996589660644531,0.0000563495641293235
741,0.0000691413879394531,0.0000645916370028494
742,0.0000925064086914063,0.0000651297419699244
743,0.0000848770141601563,0.0000525819730838403
744,0.0000710487365722656,0.0000552411268723188
745,0.000091552734375,0.000044877191648302
746,0.0000848770141601563,0.0000421603333451891
747,0.0000958442687988281,0.0000535863989009579
748,0.0000920295715332031,0.0000548196850440898
749,0.000112056732177734,0.0000602232305426651
750,0.000091552734375,0.0000568347087630813
751,0.0000524520874023438,0.0000482913874534943
752,0.0001068115234375,0.000051449823415733
753,0.000105381011962891,0.000063878384290026
754,0.0000910758972167969,0.0000556450780589437
755,0.0000720024108886719,0.0000516262939164295
756,0.000132083892822266,0.0000508586564101158
757,0.000120639801025391,0.0000570413647767359
758,0.0000743865966796875,0.0000654414484632887
759,0.00011444091796875,0.0000462409130950953
760,0.000126361846923828,0.0000673573627734508
761,0.0000171661376953125,0.0000601826300768998
762,0.000133037567138672,0.0000497855444482299
763,0.0000987052917480469,0.000050950223282488
764,0.000117301940917969,0.0000554096267764904
765,0.0000834465026855469,0.0000606914618556874
766,0.0000743865966796875,0.0000473751575226948
767,0.0000891685485839844,0.0000455123519858933
768,0.000104427337646484,0.0000577878635288998
769,0.0000872611999511719,0.000054793756007324
770,0.0000662803649902344,0.0000561423866239386
771,0.0000996589660644531,0.0000591700925677397
772,0.0000710487365722656,0.0000608607497473369
773,0.0000824928283691406,0.0000612768216887065
774,0.0000853538513183594,0.0000656530484088694
775,0.0000677108764648438,0.0000573038447292253
776,0.0000958442687988281,0.0000523501185301168
777,0.0000777244567871094,0.0000425622240452152
778,0.000135898590087891,0.0000544409391855296
779,0.000141620635986328,0.0000459028523115114
780,0.000080108642578125,0.0000350304970899233
781,0.0000777244567871094,0.0000462876024838355
782,0.0000691413879394531,0.0000442123454228054
783,0.0000171661376953125,0.0000480317290744853
784,0.0000786781311035156,0.0000497147045859465
785,0.000139236450195312,0.0000635751087665518
786,0.00006103515625,0.0000572661376462368
787,0.0000681877136230469,0.0000429438125706276
788,0.0000324249267578125,0.0000491211710345303
789,0.0000882148742675781,0.0000486140101468389
790,0.0000634193420410156,0.0000442855691793116
791,0.000175952911376953,0.0000598701286663461
792,0.000087738037109375,0.0000536224533162659
793,0.0000720024108886719,0.0000460363989556782
794,0.000109195709228516,0.0000452493088053984
795,0.000114917755126953,0.0000363953594530046
796,0.0000329017639160156,0.0000429874714742099
797,0.0000238418579101562,0.0000502514879329213
798,0.000113010406494141,0.0000517351835840949
799,0.000104904174804687,0.0000634121711520238
800,0.000117301940917969,0.0000828640912863356
801,0.0000977516174316406,0.000049249453629362
802,0.000080108642578125,0.0000549098226478194
803,0.0000734329223632813,0.0000634193420410156
804,0.000105857849121094,0.0000715446446743433
805,0.000113964080810547,0.0000521335902217627
806,0.000095367431640625,0.0000510983913832163
807,0.000137805938720703,0.0000481416646346267
808,0.000095367431640625,0.0000488798791074352
809,0.0000863075256347656,0.0000571846850146485
810,0.000173568725585937,0.0000780994636181334
811,0.0000910758972167969,0.0000705300026325466
812,0.0000963211059570313,0.0000660621701615788
813,0.0000195503234863281,0.0000446409742100484
814,0.000111103057861328,0.0000354354500837121
815,0.0000905990600585938,0.0000478610080676624
816,0.0000834465026855469,0.0000476479396123345
817,0.000080108642578125,0.0000565298445205442
818,0.0000824928283691406,0.000055297693208653
819,0.0000967979431152344,0.000066113777208088
820,0.0000867843627929688,0.0000504637014592093
821,0.000143051147460937,0.0000637447641288757
822,0.000154018402099609,0.0000702392625941307
823,0.000117778778076172,0.0000610891490778008
824,0.0000376701354980469,0.0000499405831557543
825,0.00016021728515625,0.0000742749452189575
826,0.0000562667846679688,0.0000584918087803268
827,0.000113010406494141,0.0000572333718670578
828,0.0000705718994140625,0.0000565097300007925
829,0.00014495849609375,0.0000510694599949088
830,0.0000543594360351563,0.0000690311342072493
831,0.0000972747802734375,0.0000463514170146189
832,0.000064849853515625,0.00004963460258154
833,0.000103473663330078,0.0000640490113299713
834,0.000115871429443359,0.0000590132942643119
835,0.0000948905944824219,0.0000432004991642232
836,0.000154972076416016,0.0000476706009949254
837,0.0000653266906738281,0.0000523653179675764
838,0.0000743865966796875,0.0000716764131122633
839,0.000064849853515625,0.0000519041134544184
840,0.0000286102294921875,0.0000495509297014066
841,0.000121116638183594,0.0000544064719841097
842,0.0000667572021484375,0.0000745270698721429
843,0.0000181198120117187,0.0000725231539603239
844,0.000112533569335937,0.000086674253597273
845,0.00016021728515625,0.000083473746075984
846,0.000150680541992187,0.0000710807318619052
847,0.000101566314697266,0.0000672526367655334
848,0.0000314712524414062,0.0000594709804990592
849,0.000185012817382812,0.0000571697725870826
850,-0.0000433921813964844,0.000071925001659259
851,0.000141620635986328,0.000055192742428246
852,0.000143051147460937,0.000061759156451171
853,0.00006103515625,0.0000591576024326925
854,0.0000829696655273438,0.0000506974558258133
855,0.0000886917114257813,0.0000549832737174972
856,0.0000853538513183594,0.0000548880788479869
857,0.0000824928283691406,0.0000626582895862813
858,0.00006866455078125,0.0000546878381355723
859,0.000124454498291016,0.0000449682975278627
860,0.0000429153442382813,0.0000524997494634295
861,0.0000886917114257813,0.0000680859346336423
862,0.0000543594360351563,0.0000575661153174972
863,0.0000858306884765625,0.0000526662270030044
864,0.00018310546875,0.0000480423789942198
865,0.000124454498291016,0.0000653997416566965
866,0.0000195503234863281,0.000052492169757582
867,0.0000929832458496094,0.0000661825240054988
868,0.0000629425048828125,0.0000625475136170596
869,0.0000367164611816406,0.0000596065520935068
870,0.000057220458984375,0.0000768640200790782
871,0.0000553131103515625,0.0000640348097751781
872,0.0000619888305664063,0.0000670766001648166
873,0.000072479248046875,0.0000627688700557874
874,0.00011444091796875,0.0000578409566005933
875,0.0000467300415039063,0.0000705187184768621
876,0.000152111053466797,0.0000452995300292969
877,0.0000886917114257813,0.0000562950645112675
878,0.0000638961791992188,0.0000577937651677158
879,0.000110626220703125,0.0000780251892659835
880,0.0000939369201660156,0.0000683825051395861
881,0.000110626220703125,0.0000453346517835019
882,0.000100612640380859,0.0000470971749767059
883,0.0000181198120117187,0.000057554264748103
884,0.000121593475341797,0.000061705749885828
885,0.0000882148742675781,0.0000814861549219786
886,0.000095367431640625,0.000072095507631421
887,0.0000176429748535156,0.000064547619854041
888,0.0000944137573242188,0.0000854896019979729
889,0.000011444091796875,0.0000566443608933596
890,0.000108242034912109,0.0000615156897092255
891,0.0000901222229003906,0.0000578871276005696
892,0.0000929832458496094,0.0000886481188219411
893,0.000102519989013672,0.0000949181463986873
894,0.0000391006469726562,0.0000635894129874025
895,0.000137805938720703,0.0000745057106017456
896,0.000120162963867187,0.000055297693208653
897,0.0000782012939453125,0.0000394904950139431
898,0.0000596046447753906,0.0000457763671875
899,0.0000357627868652344,0.0000537696007991357
900,0.0000271797180175781,0.000054409606268295
