Wavelength (nm),Absorbance (AU),Std.Dev.
200,1.70870494842529,1.37257865638686
201,1.00423145294189,0.63899134307394
202,1.33453845977783,0.382772638230745
203,2.78441333770752,0.785263130163228
204,2.36810874938965,0.532469303876113
205,3.39551734924316,0.77219360200948
206,2.41296291351318,0.402514375228544
207,3.67770051956177,0.335659177947266
208,2.97027683258057,0.208184252486586
209,2.82181024551392,0.184789779406877
210,3.13549041748047,0.191146986400927
211,3.22006034851074,0.163307998145531
212,2.98394536972046,0.376745611599359
213,3.21218729019165,0.902876263324604
214,3.72761011123657,1.19214244672407
215,3.82805585861206,0.540094686613202
216,2.87439680099487,0.216378573083493
217,3.24250602722168,0.208746944565027
218,3.25788831710815,0.337715588695068
219,3.28069257736206,0.62812937265269
220,3.48279857635498,0.351877029440196
221,2.9290623664856,0.443122699769241
222,3.77180957794189,0.588795115044274
223,3.58212757110596,0.526228566220279
224,3.31986045837402,0.962302130635176
225,3.87188243865967,0.512954733474358
226,3.21349716186523,0.424147525098137
227,3.74670267105103,0.756300844106943
228,3.81687784194946,0.497253504123683
229,3.62696075439453,0.301515945240671
230,3.64355087280273,0.274419275417568
231,3.40618515014648,0.285857709581101
232,3.35448312759399,0.175542372411104
233,2.8725700378418,0.0818639593469912
234,2.67987251281738,0.0356913220284658
235,2.59221839904785,0.0287293459467357
236,2.41488933563232,0.0313062162204529
237,2.32522916793823,0.0212346212051411
238,2.17221689224243,0.0106902165780641
239,2.09880638122559,0.00906675140368142
240,2.02196645736694,0.0088383036985865
241,1.95284700393677,0.00906284726233915
242,1.91923904418945,0.006408110092683
243,1.87288761138916,0.00454783593998954
244,1.87359142303467,0.00507867883449778
245,1.8389744758606,0.0058306945781582
246,1.85506725311279,0.00732752407513831
247,1.83322429656982,0.00459165334538064
248,1.82511377334595,0.00542878465899199
249,1.81452369689941,0.00451309480366195
250,1.83404684066772,0.00547286628031495
251,1.81792449951172,0.0078351170271001
252,1.8510103225708,0.00580861035301642
253,1.8200044631958,0.00705926400714161
254,1.83064794540405,0.00813509570639313
255,1.81592988967896,0.00662716455007092
256,1.81891489028931,0.00751996720276438
257,1.80579471588135,0.00713132529824946
258,1.77544641494751,0.00811882297756178
259,1.76991033554077,0.00905750202609573
260,1.74296283721924,0.0112774735995918
261,1.73061037063599,0.00895720811179322
262,1.69889879226685,0.00900718447240332
263,1.66785764694214,0.0061087014102584
264,1.63064432144165,0.00558079649694296
265,1.59754228591919,0.00660746090815711
266,1.57527685165405,0.00498437167559187
267,1.53287982940674,0.00730397287228833
268,1.50670146942139,0.00434165508881317
269,1.48086023330688,0.00504399346682226
270,1.48455762863159,0.00492837627885409
271,1.4626145362854,0.00416875032141826
272,1.44760084152222,0.0036242113529828
273,1.43294477462769,0.00304274180867396
274,1.42316675186157,0.00401813490982246
275,1.41625499725342,0.00470960491305186
276,1.39342832565308,0.00401384469284415
277,1.38870620727539,0.00356180798351231
278,1.36974096298218,0.00208906141236875
279,1.34917259216309,0.00195860095089356
280,1.33947992324829,0.00294474862972117
281,1.31805562973022,0.0032785453321442
282,1.28254985809326,0.00184647110195244
283,1.25395011901855,0.00147833177489258
284,1.20437622070312,0.00136649250349354
285,1.15430545806885,0.00120479228093441
286,1.10312223434448,0.000698516798371478
287,1.05304861068726,0.000925926907263452
288,1.00281763076782,0.00108603030947096
289,0.963088989257813,0.000910842352440669
290,0.92966890335083,0.000741014149141023
291,0.899402141571045,0.000594138333731904
292,0.876693725585938,0.000830202934755333
293,0.85662841796875,0.00104522705078125
294,0.84160041809082,0.000690302119414464
295,0.825690269470215,0.000772794022345007
296,0.814736843109131,0.000469378308571534
297,0.802323818206787,0.000507498125737293
298,0.791807174682617,0.000686041248199457
299,0.781715869903564,0.000752762631240822
300,0.770984172821045,0.000874622821406341
301,0.759627819061279,0.000809920511324612
302,0.74687671661377,0.000759881567260055
303,0.735122680664063,0.000603735349834787
304,0.722207546234131,0.000580448527676983
305,0.709694385528564,0.000617403773398794
306,0.694459915161133,0.000435711241614528
307,0.677162647247314,0.000617474477932845
308,0.664455890655518,0.000577470076604195
309,0.647322654724121,0.000539897595789624
310,0.630104541778564,0.000478710310121185
311,0.613167285919189,0.000799067541820015
312,0.592322826385498,0.00092622546411397
313,0.575491428375244,0.000677696832309615
314,0.557289123535156,0.000840619416555134
315,0.536118030548096,0.000549647443418164
316,0.51614236831665,0.000424272543743875
317,0.496860504150391,0.00041961669921875
318,0.477485179901123,0.00048304522017017
319,0.457008838653564,0.000474251411984865
320,0.435979843139648,0.000531818601008406
321,0.416540145874023,0.000496863403612345
322,0.39622974395752,0.000377876525042705
323,0.376073360443115,0.000390238123284821
324,0.357227802276611,0.000340839518317433
325,0.338741779327393,0.000384651268143522
326,0.319618225097656,0.000372817137889
327,0.301770687103271,0.000323198523338249
328,0.284298896789551,0.000283663207440187
329,0.266436100006104,0.000253784902625731
330,0.250125408172607,0.000320286943852496
331,0.23314380645752,0.000308619382327922
332,0.217877388000488,0.000325587260899203
333,0.203149795532227,0.000224630287482258
334,0.188648700714111,0.000238296477523052
335,0.175329208374023,0.000362667183229464
336,0.161835670471191,0.000275992754004315
337,0.14951229095459,0.000200153497655409
338,0.1373610496521,0.000252865805346322
339,0.126604557037354,0.00025490057178174
340,0.114731788635254,0.000289960908073307
341,0.104631423950195,0.000276861361452664
342,0.0945768356323242,0.000253548266608387
343,0.0850844383239746,0.000173788664925177
344,0.0765466690063477,0.000213473983255652
345,0.0675206184387207,0.000243020468179795
346,0.0590271949768066,0.000238590178724875
347,0.0513944625854492,0.000180403321500028
348,0.0438675880432129,0.00017369967540734
349,0.0369997024536133,0.000132210357662983
350,0.0298776626586914,0.000145296906428021
351,0.0232911109924316,0.000154395129889088
352,0.0173220634460449,0.000202291385411172
353,0.0115423202514648,0.000165349085966618
354,0.00550127029418945,0.000194764486037741
355,0.000442981719970703,0.000172322378154685
356,-0.00499057769775391,0.000155843339659237
357,-0.0105171203613281,0.000221149650899877
358,-0.0152802467346191,0.000246114500056533
359,-0.0192761421203613,0.000288426180125463
360,-0.022550106048584,0.00036433853860546
361,-0.0254812240600586,0.000275458388834887
362,-0.0283308029174805,0.000308943379898094
363,-0.0310349464416504,0.000315116853785335
364,-0.0331287384033203,0.000277917124433462
365,-0.0358443260192871,0.000277917124433462
366,-0.0386724472045898,0.000312327974625004
367,-0.0412168502807617,0.000232614440195097
368,-0.0433268547058106,0.000196470797149721
369,-0.0456089973449707,0.000176823665999633
370,-0.0477142333984375,0.000147936374866907
371,-0.0498905181884766,0.000224929702952332
372,-0.0514340400695801,0.000192665816267859
373,-0.0529193878173828,0.000171252930349731
374,-0.054499626159668,0.000234902199982383
375,-0.0559811592102051,0.000197422100965867
376,-0.0572071075439453,0.000215069945698528
377,-0.0590143203735352,0.000241285256180084
378,-0.0598616600036621,0.000173919449146908
379,-0.0608944892883301,0.000149629646372449
380,-0.0618000030517578,0.00017019813821387
381,-0.0631551742553711,0.000164654570435045
382,-0.0640993118286133,0.000186203536542643
383,-0.0646810531616211,0.000154648222355839
384,-0.0652875900268555,0.000194409263737292
385,-0.0655746459960938,0.000226139488129093
386,-0.0660505294799805,0.000175941926980306
387,-0.0659031867980957,0.00018614491437626
388,-0.0665483474731445,0.000181433875657137
389,-0.0667972564697266,0.000196873122113597
390,-0.0666708946228027,0.000196155761712996
391,-0.0669145584106445,0.00018812298593045
392,-0.0664677619934082,0.000195584629141887
393,-0.0657463073730469,0.000180014711132644
394,-0.0666513442993164,0.000166478323054764
395,-0.0661792755126953,0.00015929501617899
396,-0.0657854080200195,0.000200516687026236
397,-0.0653548240661621,0.000216238159462084
398,-0.0652084350585938,0.000168457869168285
399,-0.065155029296875,0.000143910054735836
400,-0.0651488304138184,0.000193010111094261
401,-0.0643649101257324,0.00019768911789773
402,-0.0642971992492676,0.00023372609988465
403,-0.0638504028320313,0.000192472175112703
404,-0.0632486343383789,0.000183789643951575
405,-0.0628280639648438,0.000167722005490743
406,-0.0624070167541504,0.000164358789336194
407,-0.0618691444396973,0.000151490197075046
408,-0.0611357688903809,0.000183497446437375
409,-0.0611534118652344,0.000186608502329025
410,-0.0603852272033691,0.000180413404122448
411,-0.0598502159118652,0.000121697213294596
412,-0.0588479042053223,0.000122701977543759
413,-0.0586071014404297,0.000158880538291219
414,-0.0584621429443359,0.000140018098085273
415,-0.0576400756835938,0.000162765694075698
416,-0.0569815635681152,0.000236488156577493
417,-0.056124210357666,0.00019195642304343
418,-0.0561404228210449,0.000133528027520654
419,-0.0551924705505371,0.000150662433163841
420,-0.0544815063476563,0.000187614668797554
421,-0.0532388687133789,0.000232348416193951
422,-0.0527558326721191,0.000195500908814526
423,-0.0523238182067871,0.000191406022833183
424,-0.0522103309631348,0.000139229918026221
425,-0.0513253211975098,0.00011510260344895
426,-0.05072021484375,0.000165026995821558
427,-0.0494871139526367,0.000162575599424462
428,-0.0491600036621094,0.000157864069133163
429,-0.0484409332275391,0.000169928065035146
430,-0.0468535423278809,0.000164015347724046
431,-0.0469431877136231,0.000115829232464017
432,-0.0466427803039551,0.000115994007908503
433,-0.0455007553100586,0.00013332353299943
434,-0.0443325042724609,0.000127264612713717
435,-0.0449881553649902,0.000129888901442301
436,-0.0432438850402832,0.000160905517852465
437,-0.0431342124938965,0.000128537468282237
438,-0.0425071716308594,0.000144200476305158
439,-0.0418906211853027,0.000100708639980991
440,-0.0417642593383789,0.0000984573475107204
441,-0.0403571128845215,0.000148996161613564
442,-0.0402154922485352,0.000166516560656745
443,-0.0398354530334473,0.000146577601767739
444,-0.0391793251037598,0.000108280889116712
445,-0.0389046669006348,0.000146676846061124
446,-0.0384669303894043,0.000168552324217974
447,-0.0380740165710449,0.000124683571240981
448,-0.0378084182739258,0.000108327075976531
449,-0.0373015403747559,0.000117648396159622
450,-0.037318229675293,0.000127991478498898
451,-0.0368714332580566,0.000150166612919643
452,-0.0364713668823242,0.000153464540863386
453,-0.036351203918457,0.0000929331032949816
454,-0.0361557006835937,0.000101426301183439
455,-0.0356221199035645,0.000123580884574318
456,-0.0354833602905273,0.000159810890494001
457,-0.0353960990905762,0.000142675542455887
458,-0.0351061820983887,0.000102138919989818
459,-0.0350861549377441,0.0000978271843579567
460,-0.034998893737793,0.00012998339538124
461,-0.0343031883239746,0.000125214931872615
462,-0.0348062515258789,0.000150218084948811
463,-0.0343666076660156,0.000122813110595743
464,-0.0338397026062012,0.00013273899524046
465,-0.0338273048400879,0.000128487928719324
466,-0.0335202217102051,0.000109827926695643
467,-0.0339221954345703,0.000131841809530529
468,-0.0333189964294434,0.000107336033719849
469,-0.033534049987793,0.000117851150146167
470,-0.0334739685058594,0.000103023313719226
471,-0.0332717895507812,0.000130642939240782
472,-0.033268928527832,0.000131039154337446
473,-0.0327515602111816,0.0000971812378147659
474,-0.0330262184143066,0.000108917373006216
475,-0.0325312614440918,0.000109966547434994
476,-0.0325179100036621,0.000117195282493895
477,-0.0323266983032227,0.0000847201558822722
478,-0.0321445465087891,0.0000790241608373564
479,-0.0323801040649414,0.0000771975649445442
480,-0.0318889617919922,0.0000822250341398805
481,-0.0318264961242676,0.0000770235933962108
482,-0.0318703651428223,0.0000785479769513646
483,-0.0317254066467285,0.000106245910467437
484,-0.0317511558532715,0.0000791075575986522
485,-0.0300350189208984,0.0000541971108659253
486,-0.0300126075744629,0.0000654692382404162
487,-0.0317845344543457,0.0000614065552978716
488,-0.0312199592590332,0.000068465580352011
489,-0.0307855606079102,0.0000814624336211862
490,-0.0306878089904785,0.000085702111046594
491,-0.030613899230957,0.0000931896462053527
492,-0.0304160118103027,0.0000713218330318002
493,-0.0301728248596191,0.0000697357022649077
494,-0.0301012992858887,0.0000956649906527466
495,-0.029695987701416,0.000093170124938586
496,-0.0294966697692871,0.00007375423927683
497,-0.0293283462524414,0.0000870642497924749
498,-0.0292477607727051,0.000106990187945036
499,-0.0287933349609375,0.000122475696023092
500,-0.0287294387817383,0.0000955603555516151
501,-0.028165340423584,0.000108877701770878
502,-0.0281534194946289,0.0000837551946733729
503,-0.0278549194335937,0.0000757255841488087
504,-0.0275721549987793,0.0000630652069754236
505,-0.0272812843322754,0.0000849171875594491
506,-0.0269656181335449,0.0000763431033076097
507,-0.0268702507019043,0.0000613472825472847
508,-0.0264511108398437,0.0000724729736021551
509,-0.0261354446411133,0.0000795332361395581
510,-0.0257353782653809,0.0000766433226385437
511,-0.0254931449890137,0.0000840208181057615
512,-0.0253396034240723,0.0000752526993574924
513,-0.0250391960144043,0.000062248712250966
514,-0.0248050689697266,0.0000785827058032665
515,-0.0244646072387695,0.0000766166181641941
516,-0.0241894721984863,0.0000981242358457843
517,-0.0237765312194824,0.000110636496888734
518,-0.0235562324523926,0.0000773255814276923
519,-0.0231766700744629,0.0000721790345282533
520,-0.0230493545532227,0.000060897164519205
521,-0.0227761268615723,0.0000779712596666306
522,-0.0224080085754395,0.0000821101956168826
523,-0.0221734046936035,0.0000549646616073839
524,-0.0220599174499512,0.0000609960281598532
525,-0.0216503143310547,0.0000923317312036796
526,-0.0212507247924805,0.00010930081269203
527,-0.0210137367248535,0.0000957505161407603
528,-0.020972728729248,0.0000998128496899104
529,-0.0203938484191895,0.0000673624260312868
530,-0.0202093124389648,0.0000644630226750228
531,-0.0200834274291992,0.0000720213555682372
532,-0.0198879241943359,0.0000716335752800519
533,-0.0195341110229492,0.0000644100930145052
534,-0.0193748474121094,0.000068782003932332
535,-0.0190067291259766,0.0000683708665546767
536,-0.0189170837402344,0.0000972046318686458
537,-0.0186934471130371,0.0000684323623691949
538,-0.0183525085449219,0.0000600464658272329
539,-0.0183076858520508,0.000056341493438344
540,-0.0180339813232422,0.0000618419373965205
541,-0.0179638862609863,0.0000582532266844723
542,-0.0176653861999512,0.0000530083378453566
543,-0.0174775123596191,0.0000526273573398286
544,-0.0172667503356934,0.0000485695571600517
545,-0.0172004699707031,0.0000538446073026506
546,-0.01715087890625,0.0000726453233665968
547,-0.0167012214660645,0.0000723080746999747
548,-0.0165963172912598,0.0000870067764614169
549,-0.0165414810180664,0.000053744222815044
550,-0.0164446830749512,0.0000666856382163261
551,-0.0162138938903809,0.0000737234042743213
552,-0.0160446166992187,0.0000607307861744327
553,-0.0159811973571777,0.0000557226606673872
554,-0.0158319473266602,0.0000578517658821808
555,-0.0157470703125,0.0000729965895368554
556,-0.0155048370361328,0.0000644100930145052
557,-0.0154895782470703,0.0000575592027818605
558,-0.0152950286865234,0.0000618897159188559
559,-0.0151586532592773,0.0000665713174577763
560,-0.0149655342102051,0.0000759803765422603
561,-0.0148935317993164,0.0000742948406355374
562,-0.0149025917053223,0.0000633960336861429
563,-0.0147275924682617,0.0000649497020816746
564,-0.0146183967590332,0.0000695773880212663
565,-0.0144834518432617,0.0000560420608016636
566,-0.0144381523132324,0.0000674282137844602
567,-0.0142989158630371,0.0000780892732820074
568,-0.0140609741210937,0.0000610249108417782
569,-0.0138883590698242,0.0000547875312125289
570,-0.0136513710021973,0.0000530833491762528
571,-0.0137262344360352,0.0000681176525929222
572,-0.013575553894043,0.0000679254490017848
573,-0.0134916305541992,0.0000394739382100706
574,-0.0131344795227051,0.0000402772185095818
575,-0.0134286880493164,0.000054460774042601
576,-0.0131435394287109,0.0000553028327338385
577,-0.0131020545959473,0.0000572224457713753
578,-0.0124950408935547,0.0000606567978810674
579,-0.0135798454284668,0.0000913588139052284
580,-0.0126152038574219,0.0000772402606802629
581,-0.0127997398376465,0.0000582776165443951
582,-0.0120754241943359,0.0000572899555334358
583,-0.0137820243835449,0.0000697650406474319
584,-0.0126171112060547,0.00006261291330063
585,-0.0120434761047363,0.0000504997340960454
586,-0.0128841400146484,0.0000565971760748207
587,-0.0123305320739746,0.000062523880253032
588,-0.0123858451843262,0.0000535375807506968
589,-0.0127363204956055,0.0000529106641320518
590,-0.0123434066772461,0.000048805395438858
591,-0.0125479698181152,0.0000563959481886769
592,-0.0121235847473145,0.0000507221168489661
593,-0.0117597579956055,0.0000456171445583397
594,-0.0124192237854004,0.0000465923831360262
595,-0.0120248794555664,0.0000535959450771425
596,-0.0121793746948242,0.0000653005812321941
597,-0.0121936798095703,0.0000571359566750764
598,-0.0120644569396973,0.0000539922021486222
599,-0.0115461349487305,0.0000501552455707895
600,-0.012092113494873,0.0000487727730653804
601,-0.0117387771606445,0.0000469375886492606
602,-0.0118622779846191,0.0000431610069728036
603,-0.0115752220153809,0.0000572224457713753
604,-0.01165771484375,0.0000402779241556397
605,-0.0117034912109375,0.0000367644232060329
606,-0.0114774703979492,0.000055058691664867
607,-0.0114631652832031,0.0000564755188757035
608,-0.0114741325378418,0.0000668252870229906
609,-0.011441707611084,0.0000445543025246399
610,-0.0111331939697266,0.0000591047303480002
611,-0.0113406181335449,0.0000661979821959659
612,-0.0113658905029297,0.0000550194459079103
613,-0.011284351348877,0.0000435830206003756
614,-0.0112028121948242,0.0000433292561456433
615,-0.011167049407959,0.000067335417589954
616,-0.0112729072570801,0.0000676907254173865
617,-0.0112876892089844,0.0000567536385294267
618,-0.0112161636352539,0.000046417593092491
619,-0.0112791061401367,0.0000418361770498111
620,-0.0109806060791016,0.0000348711114860196
621,-0.0113520622253418,0.0000590623986022416
622,-0.011009693145752,0.0000576174396195189
623,-0.010955810546875,0.0000664670633762467
624,-0.0109062194824219,0.0000679505498669857
625,-0.0108823776245117,0.0000595445329818283
626,-0.0109777450561523,0.0000565610078895901
627,-0.0108246803283691,0.0000510327157667195
628,-0.0107951164245605,0.0000499633423891081
629,-0.0106863975524902,0.0000576775887621001
630,-0.0106945037841797,0.0000270465886447762
631,-0.0106711387634277,0.0000467361232147619
632,-0.0107016563415527,0.0000604502772937057
633,-0.0105624198913574,0.0000427441360776434
634,-0.0105361938476562,0.0000512727455425848
635,-0.010587215423584,0.0000484512075403044
636,-0.0104074478149414,0.0000388197871892529
637,-0.0104751586914062,0.0000452166350979984
638,-0.010322093963623,0.0000505773421165454
639,-0.0103702545166016,0.0000391021007174552
640,-0.0103592872619629,0.0000498665439095683
641,-0.010317325592041,0.0000549429395102052
642,-0.0102910995483398,0.0000528698238985281
643,-0.0102787017822266,0.0000675781049695633
644,-0.0102229118347168,0.0000730961968862985
645,-0.0102286338806152,0.0000631570771038418
646,-0.0102653503417969,0.0000527643532033195
647,-0.0101275444030762,0.0000687125488581141
648,-0.0100507736206055,0.0000630327502548876
649,-0.00996589660644531,0.0000607597949415075
650,-0.00994157791137695,0.000068221050729577
651,-0.0100588798522949,0.0000681476875684569
652,-0.0100641250610352,0.0000589139979600853
653,-0.00994873046875,0.0000664277119832289
654,-0.00974512100219727,0.0000843125766956342
655,-0.00995254516601563,0.0000561069383990211
656,-0.00414466857910156,0.0000373001276142205
657,-0.013404369354248,0.0000380611945381079
658,-0.0109004974365234,0.0000558490114481023
659,-0.00970792770385742,0.0000670698202992143
660,-0.0097203254699707,0.0000661430033276629
661,-0.00963497161865234,0.0000711702421511188
662,-0.00952959060668945,0.0000527417248994807
663,-0.00964450836181641,0.0000536722533626829
664,-0.0095677375793457,0.0000579695543903285
665,-0.00944232940673828,0.00005224795065236
666,-0.00951576232910156,0.0000749332564024187
667,-0.00948238372802734,0.0000703783215617946
668,-0.00950050354003906,0.0000409615331074713
669,-0.00937509536743164,0.0000462716350998232
670,-0.00937461853027344,0.0000497295664666234
671,-0.00940322875976563,0.000057176732203955
672,-0.00922775268554688,0.0000403371543551571
673,-0.00929975509643555,0.000049728423402724
674,-0.00927114486694336,0.0000585287262310375
675,-0.00925254821777344,0.0000376972873230979
676,-0.00919580459594727,0.0000455136009356057
677,-0.00925350189208984,0.0000550390722844252
678,-0.00907611846923828,0.0000531967364089797
679,-0.0090641975402832,0.0000430759761569411
680,-0.00895833969116211,0.0000404672961039037
681,-0.00897979736328125,0.000047518922239743
682,-0.0088496208190918,0.0000448949211600436
683,-0.00889158248901367,0.0000432767485449855
684,-0.00874853134155273,0.0000577504724777324
685,-0.00871849060058594,0.0000552133367358389
686,-0.00868654251098633,0.0000410454047147379
687,-0.00872611999511719,0.0000389484315363069
688,-0.00856447219848633,0.0000500724427116605
689,-0.00853538513183594,0.0000580195420952032
690,-0.00852823257446289,0.0000473415496033235
691,-0.00846958160400391,0.0000462323072753686
692,-0.00849294662475586,0.0000613287480646878
693,-0.00841951370239258,0.0000460475103599083
694,-0.00845909118652344,0.0000409698586224166
695,-0.00843286514282227,0.0000354113798103014
696,-0.00841379165649414,0.0000390118660996789
697,-0.00839853286743164,0.0000540395577383379
698,-0.0084376335144043,0.0000385317175483451
699,-0.00854635238647461,0.0000541593399152484
700,-0.00846290588378906,0.0000363695801033089
701,-0.00843286514282227,0.0000372444620106171
702,-0.00849151611328125,0.0000586965043009682
703,-0.00850820541381836,0.0000498676838074782
704,-0.00853824615478516,0.0000522620921535086
705,-0.00855731964111328,0.000059075871084379
706,-0.00861310958862305,0.0000604719010959098
707,-0.00846672058105469,0.0000438832695245746
708,-0.00852155685424805,0.000043747048199915
709,-0.00863838195800781,0.0000406257143521632
710,-0.00859689712524414,0.0000452606134393448
711,-0.00864601135253906,0.000049064435070173
712,-0.00859212875366211,0.0000543813912074011
713,-0.00846433639526367,0.0000636948074095023
714,-0.00843048095703125,0.0000624237939390591
715,-0.00843524932861328,0.0000397294356230606
716,-0.00836944580078125,0.0000415088047176735
717,-0.00832319259643555,0.0000486175178620846
718,-0.00818872451782227,0.0000545410835593116
719,-0.0080876350402832,0.0000310557931441354
720,-0.00812959671020508,0.0000368794317076952
721,-0.00806999206542969,0.000051369107354094
722,-0.00797510147094727,0.0000440732720513412
723,-0.00791215896606445,0.0000530094101831475
724,-0.0078425407409668,0.0000477801777758075
725,-0.0078120231628418,0.0000510082049095722
726,-0.0077357292175293,0.0000580273793966161
727,-0.00772666931152344,0.0000559832005364959
728,-0.0076899528503418,0.0000433174474847638
729,-0.00759601593017578,0.0000344982704014091
730,-0.00752496719360352,0.0000419413452343456
731,-0.00757169723510742,0.0000481156810547558
732,-0.00757360458374023,0.0000507221168489661
733,-0.00756454467773438,0.0000400181163920236
734,-0.00751352310180664,0.0000415156513050026
735,-0.00758218765258789,0.0000514454038973281
736,-0.00760269165039063,0.0000471140690931547
737,-0.0075225830078125,0.0000466509071134195
738,-0.00766992568969727,0.000040023087630736
739,-0.0076603889465332,0.0000510494209672608
740,-0.0075993537902832,0.0000596456386739427
741,-0.00773715972900391,0.0000482996263965629
742,-0.00775623321533203,0.0000530629994426556
743,-0.00767183303833008,0.0000451121722160954
744,-0.00774765014648438,0.0000476872919648986
745,-0.00771951675415039,0.0000351212498251348
746,-0.00773096084594727,0.0000458483328974204
747,-0.00769424438476563,0.000052932146335183
748,-0.00768661499023438,0.0000494165283509507
749,-0.00771999359130859,0.0000308795782255855
750,-0.00756406784057617,0.0000388936635292154
751,-0.00747156143188477,0.000039660699523789
752,-0.00757980346679688,0.0000354041555371637
753,-0.00751113891601563,0.0000457949898509722
754,-0.0074162483215332,0.0000481452067635609
755,-0.00745296478271484,0.0000403033191854771
756,-0.00734519958496094,0.0000434340809175525
757,-0.00716972351074219,0.0000493405506958595
758,-0.00718069076538086,0.0000368748074241668
759,-0.00722455978393555,0.0000461978679653931
760,-0.00713205337524414,0.0000497169913182945
761,-0.00709629058837891,0.0000416407450573364
762,-0.0071253776550293,0.000037191769984217
763,-0.0069737434387207,0.000043615614813915
764,-0.00696849822998047,0.0000458371732105415
765,-0.00686216354370117,0.0000490933901833868
766,-0.00698280334472656,0.0000498334755279118
767,-0.00706911087036133,0.000054938800994117
768,-0.00706577301025391,0.0000401761835167491
769,-0.00683021545410156,0.0000376293710261376
770,-0.00692224502563477,0.0000417634225647879
771,-0.00697946548461914,0.0000390861065508331
772,-0.00703239440917969,0.0000486736069269656
773,-0.00699853897094727,0.0000412698359498362
774,-0.0070343017578125,0.0000389389439339743
775,-0.00706815719604492,0.0000378252409473692
776,-0.00701093673706055,0.0000298885053006508
777,-0.00707006454467773,0.0000326990016479372
778,-0.00703239440917969,0.0000437847135938972
779,-0.00709152221679688,0.000051203963240514
780,-0.00705051422119141,0.0000462961980249526
781,-0.00707054138183594,0.0000519424299856042
782,-0.00713443756103516,0.0000527740480776693
783,-0.00711250305175781,0.0000610034830643249
784,-0.00709772109985352,0.0000278404101599913
785,-0.00719118118286133,0.0000443009692849745
786,-0.00708627700805664,0.0000388775836120107
787,-0.00711441040039063,0.0000488624321845695
788,-0.00706100463867188,0.0000428430955748339
789,-0.00698137283325195,0.0000538055324532799
790,-0.00708341598510742,0.0000516978129904687
791,-0.00697803497314453,0.000042242497616482
792,-0.00697755813598633,0.0000399840112477503
793,-0.00697183609008789,0.0000577731067943288
794,-0.00687217712402344,0.0000430258018175134
795,-0.00682544708251953,0.0000322429726846846
796,-0.00686740875244141,0.0000368130948041661
797,-0.00689601898193359,0.0000410696331595104
798,-0.00681877136230469,0.0000615618747463703
799,-0.00678825378417969,0.0000560714677638395
800,-0.00676298141479492,0.0000380126256320415
801,-0.00672721862792969,0.000034872741548495
802,-0.00668144226074219,0.0000507814783167979
803,-0.00670623779296875,0.0000523761720081049
804,-0.00662040710449219,0.0000383942753716923
805,-0.00662469863891602,0.0000464775602151019
806,-0.00661897659301758,0.0000450983095785165
807,-0.0065464973449707,0.0000483807637584438
808,-0.00660848617553711,0.0000451121722160954
809,-0.00660181045532227,0.0000401606171112517
810,-0.00663995742797852,0.0000551937723261277
811,-0.00653171539306641,0.0000370777303127988
812,-0.00653791427612305,0.0000451537345930485
813,-0.0065608024597168,0.0000432491565355181
814,-0.00653314590454102,0.0000523957036149109
815,-0.00666570663452148,0.0000393751730082363
816,-0.0066986083984375,0.0000454198344041064
817,-0.00654268264770508,0.0000388929327681131
818,-0.00661230087280273,0.0000413661387848431
819,-0.00668048858642578,0.0000418280239685885
820,-0.00660896301269531,0.0000457428272876343
821,-0.00650978088378906,0.0000515712117528713
822,-0.00661611557006836,0.0000382652535132796
823,-0.00664758682250977,0.0000389943772168067
824,-0.00662374496459961,0.0000522457746970605
825,-0.00665092468261719,0.0000454436068904434
826,-0.00656366348266602,0.0000436755246119723
827,-0.00660228729248047,0.0000510182335017237
828,-0.00652742385864258,0.0000478229873015661
829,-0.0065155029296875,0.0000404490312006436
830,-0.00641536712646484,0.0000545942105405656
831,-0.00651311874389648,0.0000553562555087358
832,-0.00650167465209961,0.0000498608440291207
833,-0.00636959075927734,0.0000481263123966763
834,-0.00633430480957031,0.0000389462422947555
835,-0.00628757476806641,0.0000509357175628753
836,-0.00620365142822266,0.0000548611460128392
837,-0.00625514984130859,0.0000572164852034067
838,-0.00624370574951172,0.000045100830375007
839,-0.00609207153320313,0.0000342319599178247
840,-0.00613498687744141,0.0000533450582060773
841,-0.00609588623046875,0.0000625402427639554
842,-0.00595951080322266,0.0000598767744153681
843,-0.00593328475952148,0.0000568926880782771
844,-0.0058751106262207,0.0000535556274249369
845,-0.00584888458251953,0.0000647568737370754
846,-0.00586223602294922,0.0000601694054087695
847,-0.00578975677490234,0.0000577357061863411
848,-0.00588035583496094,0.0000453747576427518
849,-0.00579214096069336,0.0000546639263378963
850,-0.00577259063720703,0.0000446689790442101
851,-0.00568819046020508,0.0000381611261337377
852,-0.00569534301757813,0.0000525484500382298
853,-0.00562953948974609,0.0000439699711427447
854,-0.00570154190063477,0.0000431689083013774
855,-0.00568723678588867,0.0000421603333451891
856,-0.00574445724487305,0.000052777279306699
857,-0.00569915771484375,0.0000397580405915753
858,-0.00573110580444336,0.000045147439722656
859,-0.00569248199462891,0.0000584830617602637
860,-0.00580930709838867,0.0000518021632519437
861,-0.00577306747436523,0.0000448885899954312
862,-0.00581026077270508,0.0000591268462441336
863,-0.00585603713989258,0.0000635196494853376
864,-0.00579643249511719,0.0000455922157928525
865,-0.00579357147216797,0.00003861645051522
866,-0.00585603713989258,0.0000580117037349816
867,-0.00578641891479492,0.0000495635469825221
868,-0.00588274002075195,0.0000597094567966405
869,-0.0059504508972168,0.0000678902921993252
870,-0.0058293342590332,0.0000583702050679892
871,-0.00590801239013672,0.0000494222794744326
872,-0.00591707229614258,0.0000415813211849888
873,-0.00594663619995117,0.0000489542494495796
874,-0.00593280792236328,0.0000469605928212571
875,-0.00583267211914063,0.0000596027373962393
876,-0.00584697723388672,0.000065425811526448
877,-0.0058903694152832,0.0000601164776440907
878,-0.00585794448852539,0.0000583516991163274
879,-0.0057826042175293,0.0000686198327362716
880,-0.00570011138916016,0.0000640774049970337
881,-0.00582218170166016,0.0000573762124918057
882,-0.00576019287109375,0.0000655299872914751
883,-0.00568008422851563,0.0000581594745740644
884,-0.00564861297607422,0.0000441158132074695
885,-0.00554275512695313,0.0000622614952649843
886,-0.0054926872253418,0.0000653997416566965
887,-0.00550508499145508,0.0000509680708084868
888,-0.00551700592041016,0.0000378252409473692
889,-0.00548887252807617,0.000071334583873599
890,-0.00536632537841797,0.0000510549881527869
891,-0.00526046752929688,0.0000570363819101812
892,-0.00511312484741211,0.0000642917261075056
893,-0.00516128540039063,0.0000588937325362282
894,-0.00519990921020508,0.0000638053732753839
895,-0.00506687164306641,0.0000531379336114209
896,-0.00500726699829102,0.0000460943956482703
897,-0.00497293472290039,0.0000462998813397917
898,-0.00493335723876953,0.0000739666504481246
899,-0.00484466552734375,0.0000731521664173828
900,-0.00489902496337891,0.0000515061390344288
