Wavelength (nm),Absorbance (AU),Std.Dev.
200,1.00363063812256,0.226398276958042
201,0.783422470092773,0.173537107165806
202,1.4371337890625,0.272913840087541
203,2.50121068954468,0.406550369726803
204,2.24977779388428,0.353029707482578
205,2.91742753982544,0.59947894041409
206,2.48397159576416,0.326995358308751
207,3.68400526046753,0.311460674026182
208,3.03728342056274,0.182645907668063
209,2.82181024551392,0.359735722495087
210,3.2982611656189,0.275383698937728
211,2.8192458152771,0.406071550350312
212,3.35980224609375,0.239769462487619
213,3.07044219970703,0.225993527210007
214,3.25051879882812,0.376998661433507
215,3.55277061462402,0.197057633233097
216,2.69417142868042,0.124368982217404
217,3.08079862594605,0.146490885271997
218,3.0013165473938,0.542589233372608
219,3.4647479057312,1.03275813018768
220,3.7487587928772,0.49615526193452
221,2.98243951797485,0.721842869955955
222,3.73273086547852,1.4931892906837
223,3.73352289199829,0.786292321744512
224,3.16786766052246,0.359385614653023
225,3.25755405426025,0.238189179189584
226,3.17490720748901,0.167063558396035
227,2.9175386428833,0.337992217386247
228,3.48244047164917,0.731773150203924
229,3.94621753692627,0.54108260528517
230,3.17794799804687,0.220473989185179
231,2.76368427276611,0.0593477688634323
232,2.66334962844849,0.0358371494538187
233,2.52492475509644,0.0243033377831469
234,2.3770260810852,0.0190519653978516
235,2.23562955856323,0.0147530949626828
236,2.11962032318115,0.00933099591981756
237,2.04340362548828,0.00801700901330187
238,1.929847240448,0.00737919835026934
239,1.8501353263855,0.00477919304301936
240,1.78208589553833,0.00505017511635437
241,1.73987913131714,0.00630082682754483
242,1.71347618103027,0.00470297563512113
243,1.67756271362305,0.00398157919236886
244,1.66285514831543,0.00333319856202347
245,1.64347743988037,0.00496340052219531
246,1.64627647399902,0.00445305740572842
247,1.63498640060425,0.00358038958470929
248,1.6362190246582,0.0029331822214615
249,1.63074111938477,0.00523383137741035
250,1.64402151107788,0.00690547452862305
251,1.62885761260986,0.00530400424315533
252,1.63306045532227,0.00410345124852823
253,1.63154077529907,0.0039242093179731
254,1.6435923576355,0.00547830904266853
255,1.62420034408569,0.00741834556582724
256,1.62252521514893,0.00640403942022277
257,1.61823177337646,0.00501232059757027
258,1.5976505279541,0.00563361435472346
259,1.59011507034302,0.00583404789249259
260,1.56673336029053,0.00366579506098292
261,1.56330394744873,0.00434369244297234
262,1.53548908233643,0.00467915188967352
263,1.50910234451294,0.00474849985300783
264,1.48070669174194,0.0058768330210276
265,1.45401811599731,0.00466469941510876
266,1.44113922119141,0.00362119066752718
267,1.41129112243652,0.00407818078773897
268,1.39672327041626,0.00336704465381649
269,1.38165378570557,0.00353009372533399
270,1.3856520652771,0.00494441276428822
271,1.37350654602051,0.0040284359077283
272,1.36320781707764,0.00465600639704506
273,1.35951232910156,0.00366134635605745
274,1.34585332870483,0.00319255293716358
275,1.33306121826172,0.00323579882642826
276,1.32197046279907,0.00419713789371421
277,1.31803226470947,0.00362485372725059
278,1.29553270339966,0.00266299751115347
279,1.27232122421265,0.00208236353872461
280,1.25438404083252,0.00188023947763054
281,1.22606182098389,0.00150946370569046
282,1.18941020965576,0.00176603592462481
283,1.16090202331543,0.00125119744255961
284,1.10963249206543,0.0010461455159274
285,1.0634298324585,0.00152786126113391
286,1.01366949081421,0.000863133739365731
287,0.966704368591309,0.000504608177367315
288,0.921700477600098,0.000774017021745558
289,0.885196685791016,0.00105064269928601
290,0.853159427642822,0.00103728906867153
291,0.824267387390137,0.000862138461057458
292,0.802229881286621,0.00118233463304508
293,0.783167839050293,0.000687820700465924
294,0.76755952835083,0.000553131103515625
295,0.75163745880127,0.000720139677360259
296,0.739939689636231,0.000654662514052745
297,0.72676420211792,0.00114120033529522
298,0.714441299438477,0.000836524057933605
299,0.703077793121338,0.000590502322351171
300,0.692257404327393,0.000557285362093609
301,0.681195735931397,0.000622123210729895
302,0.666384696960449,0.000660174114222595
303,0.653929233551025,0.000676579335583593
304,0.641989707946777,0.000679658735697024
305,0.628839015960693,0.000708897623424159
306,0.613297939300537,0.000564600969705689
307,0.59647274017334,0.00053968192789435
308,0.584757804870606,0.000521554360890465
309,0.568745613098145,0.00056053987691412
310,0.550988674163818,0.000557911701557484
311,0.536530017852783,0.000398530900633828
312,0.517399787902832,0.000387637816328743
313,0.501593589782715,0.000438781397086189
314,0.484435081481934,0.000317325724455947
315,0.467026233673096,0.000420482782078716
316,0.450056076049805,0.000415539439884833
317,0.43224048614502,0.000250676700023945
318,0.415480613708496,0.000224840729191458
319,0.397666454315186,0.000265512247031701
320,0.380978107452393,0.000343778096345857
321,0.364810943603516,0.000339148899369906
322,0.348440647125244,0.000366905666047312
323,0.332549095153809,0.000364158761361178
324,0.317077159881592,0.000254371954159521
325,0.302455425262451,0.000245099865445711
326,0.287746906280518,0.000304770200155241
327,0.27452564239502,0.000410057776982438
328,0.260872840881348,0.000368251677542887
329,0.247330665588379,0.000294794907933985
330,0.235473155975342,0.000277360234811628
331,0.223678112030029,0.000396233029161944
332,0.212343692779541,0.000380476612542471
333,0.202716827392578,0.000294535638987728
334,0.192916393280029,0.000252549093140189
335,0.183304786682129,0.000360170859875249
336,0.17465877532959,0.000254128707121986
337,0.166826248168945,0.000231316649410943
338,0.15931224822998,0.000200371490275099
339,0.152766704559326,0.00019357474451241
340,0.145341873168945,0.000313084175547534
341,0.13969612121582,0.000303777830693236
342,0.13417911529541,0.000247066077000044
343,0.128715991973877,0.000229167759641656
344,0.12411642074585,0.000328938847934569
345,0.119322299957275,0.000280477545847348
346,0.11573314666748,0.000301716992709817
347,0.111874580383301,0.000213886847419794
348,0.108001708984375,0.000242289589170966
349,0.105279445648193,0.000323530410066261
350,0.101902961730957,0.000320298302149709
351,0.0987534523010254,0.00026732156236956
352,0.0964212417602539,0.00025107548022315
353,0.0941362380981445,0.000234215888513431
354,0.0912904739379883,0.000249016764027802
355,0.0895829200744629,0.000295903487524367
356,0.0851230621337891,0.000349195895817949
357,0.0797686576843262,0.000301903827456486
358,0.0738368034362793,0.000308041232995476
359,0.0695452690124512,0.000349882818753131
360,0.0706162452697754,0.000328418628693098
361,0.0758981704711914,0.00029108164905601
362,0.0813875198364258,0.000394014095704496
363,0.0835971832275391,0.000457556995783601
364,0.0841135978698731,0.00045003728306487
365,0.0833473205566406,0.00045003728306487
366,0.0807566642761231,0.000483158177094687
367,0.0784153938293457,0.000414092372657914
368,0.0762701034545898,0.000365216175686689
369,0.0747041702270508,0.00029446152021652
370,0.0741696357727051,0.00033758993185485
371,0.0739855766296387,0.000376042864885979
372,0.0732464790344238,0.00023568686515265
373,0.0727815628051758,0.000162793630449601
374,0.072359561920166,0.000333726060115637
375,0.0721592903137207,0.000398914112284594
376,0.0716633796691895,0.000418592416635521
377,0.0710082054138184,0.000273510069668791
378,0.070526123046875,0.000284188545718219
379,0.0702776908874512,0.000267410006230497
380,0.070012092590332,0.000303801781324463
381,0.0703258514404297,0.000384594516781941
382,0.0703125,0.000285975110076772
383,0.0693626403808594,0.000254321892905986
384,0.0694246292114258,0.000251553181992503
385,0.0693864822387695,0.000259167904485363
386,0.0693831443786621,0.000215817151003332
387,0.0694260597229004,0.000273396987127705
388,0.0690155029296875,0.000258408786623382
389,0.0691313743591309,0.000296983430849486
390,0.0694713592529297,0.000335460278482815
391,0.0690212249755859,0.00028684519636904
392,0.0691990852355957,0.000290962892513515
393,0.069124698638916,0.000340631319865603
394,0.068932056427002,0.000309272919597005
395,0.069582462310791,0.000261438990641486
396,0.0692276954650879,0.000260400243827425
397,0.0692896842956543,0.000298004531274133
398,0.0688343048095703,0.000294393561616666
399,0.068572998046875,0.0002214701995001
400,0.0691213607788086,0.000242604699316673
401,0.0694980621337891,0.000319746959978822
402,0.0695176124572754,0.000245396542750278
403,0.0695405006408691,0.000217959964792636
404,0.0691666603088379,0.000219490169148671
405,0.0688343048095703,0.000212808315580198
406,0.0691876411437988,0.000241816154042257
407,0.0698633193969727,0.000248980237916271
408,0.0700650215148926,0.000261494645562956
409,0.0694751739501953,0.000270594899158012
410,0.0698223114013672,0.000241658136218998
411,0.0698275566101074,0.000262972126173111
412,0.0701098442077637,0.000220972739379284
413,0.0697588920593262,0.000217972482714259
414,0.0702142715454102,0.000198758174338086
415,0.0709257125854492,0.000247330979946401
416,0.070950984954834,0.000325676637357915
417,0.0709848403930664,0.000252743486313146
418,0.0709185600280762,0.000194867192693956
419,0.0712809562683106,0.00017898106711562
420,0.0713801383972168,0.000158266842963168
421,0.0718541145324707,0.000242623442967804
422,0.071681022644043,0.0002449885188318
423,0.0722393989562988,0.000199178710939034
424,0.0723834037780762,0.000131198691783701
425,0.0728759765625,0.000186096048464522
426,0.0729060173034668,0.000201651947960508
427,0.0739302635192871,0.00028034780924489
428,0.0727953910827637,0.000202556473573126
429,0.0744342803955078,0.000226436908005631
430,0.0744318962097168,0.000185224078187147
431,0.0738968849182129,0.000129867893452066
432,0.0753345489501953,0.000146357163187034
433,0.0758228302001953,0.000146183061648252
434,0.0750093460083008,0.000118660617837164
435,0.0746979713439941,0.000163175877166646
436,0.0762600898742676,0.00022533772254104
437,0.0757594108581543,0.000187012591185664
438,0.0760078430175781,0.000117685110861987
439,0.075831413269043,0.000131240278353011
440,0.0759716033935547,0.0001794783645663
441,0.076413631439209,0.000210889285922012
442,0.0751819610595703,0.000169552994748959
443,0.0759968757629395,0.000180024815519907
444,0.0757861137390137,0.000244616997404196
445,0.0758600234985352,0.000189193217328147
446,0.0759410858154297,0.000168630546893593
447,0.0756473541259766,0.000140280921234004
448,0.075777530670166,0.000158585458013732
449,0.0758881568908691,0.000143378201774794
450,0.0750155448913574,0.000110202008841826
451,0.075371265411377,0.000152107316452568
452,0.0754604339599609,0.000202466652064752
453,0.0751228332519531,0.000131216021122664
454,0.0749425888061523,0.000163356922243043
455,0.0750446319580078,0.000171186532139142
456,0.0746555328369141,0.000180034919340065
457,0.0745639801025391,0.000211921797778207
458,0.0741825103759766,0.000149666111762033
459,0.073509693145752,0.000101773181197902
460,0.0736274719238281,0.000143593712898212
461,0.0741949081420898,0.000173851453630155
462,0.0731263160705566,0.000185591980822298
463,0.0735468864440918,0.000154601166756893
464,0.0727109909057617,0.000125102297453358
465,0.0724005699157715,0.0000987732234257757
466,0.0721368789672852,0.000136595328642204
467,0.0719308853149414,0.000150451002448387
468,0.0723333358764648,0.000129853886237071
469,0.0718169212341309,0.000146055462856012
470,0.0719032287597656,0.000159557436968722
471,0.0718398094177246,0.000174650030942054
472,0.0716743469238281,0.000175325702424149
473,0.0710091590881348,0.000132687597148039
474,0.0704402923583984,0.00011602144773097
475,0.0707507133483887,0.000151808057257262
476,0.0701069831848145,0.000168222851139982
477,0.0699877738952637,0.000115471412372682
478,0.0701937675476074,0.000113601386746848
479,0.0693831443786621,0.0000985335269917098
480,0.0695414543151856,0.000135035029810214
481,0.0690364837646484,0.000134866543444832
482,0.0688505172729492,0.000109336171325428
483,0.0687623023986816,0.000106911527276208
484,0.0680832862854004,0.000121114760857398
485,0.0695867538452148,0.000128200931181246
486,0.0655193328857422,0.000107562456746085
487,0.0660486221313477,0.000109473337782594
488,0.0686593055725098,0.000121065940158335
489,0.0679607391357422,0.000122642665406133
490,0.0673065185546875,0.000117243775624107
491,0.0671272277832031,0.0000958810327724976
492,0.0671586990356445,0.000129074102542208
493,0.0670313835144043,0.000136887980994051
494,0.0666298866271973,0.000123889598381462
495,0.0668020248413086,0.000102817856747054
496,0.0669016838073731,0.000134424107714444
497,0.0662946701049805,0.000114086715602967
498,0.0664920806884766,0.000116367807467087
499,0.0663142204284668,0.000149611410344711
500,0.0658903121948242,0.000137083841236056
501,0.0664167404174805,0.000135055234049096
502,0.0658249855041504,0.000107668098658784
503,0.0657711029052734,0.0000993653585634698
504,0.0657753944396973,0.0000805939438567614
505,0.0658550262451172,0.000127874177390025
506,0.065824031829834,0.0000938533760003912
507,0.0655298233032227,0.000101835717393093
508,0.0657539367675781,0.000115410354420496
509,0.0654096603393555,0.000097351885137499
510,0.0657229423522949,0.000107051800497188
511,0.065701961517334,0.000122731622863723
512,0.0654597282409668,0.000107725102215183
513,0.0653371810913086,0.0000872703193110149
514,0.0653076171875,0.000110683755054124
515,0.0653786659240723,0.0000933213079463992
516,0.0653128623962402,0.0000950474138138987
517,0.0652728080749512,0.000110303061485017
518,0.0651774406433106,0.00011227464792451
519,0.0651693344116211,0.000118294063593564
520,0.0650725364685059,0.0000938436849088273
521,0.0650873184204102,0.0000957243914598691
522,0.0648417472839356,0.00012798792549937
523,0.0649657249450684,0.000104611160968048
524,0.0647745132446289,0.00006797396897844
525,0.0646905899047852,0.000100683801805261
526,0.0646510124206543,0.000133953055102443
527,0.0644350051879883,0.000123955651310264
528,0.0644240379333496,0.000131326874742834
529,0.0645151138305664,0.000109485798939256
530,0.0642409324645996,0.0000872625027752118
531,0.0640907287597656,0.000119098611951822
532,0.0639748573303223,0.000094317377391661
533,0.0639305114746094,0.0000730977521741671
534,0.0633959770202637,0.0000997102869940247
535,0.0634555816650391,0.000129815358602712
536,0.0633358955383301,0.000123569844816871
537,0.0633659362792969,0.0000898986647284277
538,0.0631904602050781,0.0000675680103985951
539,0.0628366470336914,0.0000937952144314919
540,0.0628514289855957,0.000108394221731851
541,0.0624980926513672,0.0000989549124937122
542,0.0623011589050293,0.0000887788324183428
543,0.062065601348877,0.0000850055022077154
544,0.062037467956543,0.000091363791366558
545,0.0616827011108398,0.000124274412212676
546,0.0617904663085938,0.000125935573248849
547,0.0617518424987793,0.00010399205138582
548,0.0612740516662598,0.000107280942872374
549,0.0608716011047363,0.0000857935931258757
550,0.0608911514282227,0.000100708639980991
551,0.0607590675354004,0.0000989870757702774
552,0.0605082511901856,0.0000859339410887531
553,0.060173511505127,0.0001096455914088
554,0.0601091384887695,0.0000895616464916001
555,0.0599641799926758,0.0000966180812218776
556,0.059664249420166,0.00011007814456885
557,0.0593328475952148,0.00013179006153636
558,0.0593156814575195,0.000109836207471248
559,0.0590457916259766,0.0000828572311650163
560,0.0588302612304688,0.0000895895682719037
561,0.0583968162536621,0.000113527306930201
562,0.0582118034362793,0.000133412185776623
563,0.0581579208374023,0.000111748901572647
564,0.0578989982604981,0.0000741738553986503
565,0.0575442314147949,0.0000798869471336878
566,0.0573949813842773,0.0000897923745716584
567,0.0571780204772949,0.0000910846346513651
568,0.0568060874938965,0.0000960397861202853
569,0.0564537048339844,0.0000927665827126097
570,0.0559134483337402,0.0000855680261349002
571,0.0555124282836914,0.0000910621652686486
572,0.0550417900085449,0.000089946707108271
573,0.0550169944763184,0.0000743560239125092
574,0.0548076629638672,0.0000744965547540181
575,0.0539579391479492,0.0000755151096146742
576,0.0543045997619629,0.0000808713571077494
577,0.0539236068725586,0.000088530054741473
578,0.0535082817077637,0.0000952624697049697
579,0.0525608062744141,0.0000897442495737201
580,0.0534572601318359,0.0000734762584085778
581,0.0526056289672852,0.0000892539304054958
582,0.052342414855957,0.0000702198371235788
583,0.0511364936828613,0.0000858704157124211
584,0.0528755187988281,0.0000930455805838004
585,0.0523662567138672,0.000090501130030603
586,0.0511584281921387,0.00008984300461491
587,0.0519561767578125,0.0000831558068782907
588,0.0512290000915527,0.0000744629736806063
589,0.0508499145507813,0.0000790486138305467
590,0.051365852355957,0.0000984527286780056
591,0.0509729385375977,0.00010089585817537
592,0.0513315200805664,0.000114875207836044
593,0.0508804321289063,0.0000957505161407603
594,0.0497064590454102,0.0000884195479316655
595,0.0502104759216309,0.0000838243919883837
596,0.049685001373291,0.00010066573382812
597,0.049891471862793,0.0000874499068030245
598,0.0495867729187012,0.0000752738466669888
599,0.0496983528137207,0.0000740496020042578
600,0.0489039421081543,0.0000741661914643234
601,0.0489878654479981,0.0000775853767386878
602,0.0486865043640137,0.000068507080180254
603,0.048586368560791,0.0000755376885087696
604,0.0481457710266113,0.0000885583017756549
605,0.0480880737304688,0.0000875200798578909
606,0.0480656623840332,0.0000882883024049329
607,0.0478153228759766,0.0000850763551780658
608,0.0476665496826172,0.0000718649126070405
609,0.0475363731384277,0.0000757405956633082
610,0.0475635528564453,0.0000792296183989091
611,0.0469660758972168,0.0000811632313608898
612,0.046907901763916,0.000103393426892811
613,0.0468316078186035,0.0000864667635333043
614,0.046630859375,0.0000706990488427431
615,0.0464258193969727,0.0000832323323198647
616,0.0461306571960449,0.000080815106591722
617,0.0460076332092285,0.0000734004035385868
618,0.045903205871582,0.000085448367250832
619,0.0455842018127441,0.0000591470317967822
620,0.0456986427307129,0.0000610481933736783
621,0.0450839996337891,0.0000829545917191413
622,0.0452699661254883,0.0000761119340375914
623,0.0445780754089356,0.000099780952592708
624,0.0437994003295898,0.000125291175078697
625,0.0437455177307129,0.000121362316836247
626,0.0445055961608887,0.0000949277277994484
627,0.0454769134521484,0.0000955960394755681
628,0.0453834533691406,0.000103016692470868
629,0.0454039573669434,0.0000789248326728843
630,0.0453696250915527,0.0000948510494930752
631,0.0447125434875488,0.0000670359106856917
632,0.0440549850463867,0.0000842410813336267
633,0.0436248779296875,0.0000663900496947175
634,0.0432806015014648,0.0000899441792017149
635,0.0431275367736816,0.0000835009805778753
636,0.0429630279541016,0.0000570234244193881
637,0.0427794456481934,0.0000621609864825381
638,0.042811393737793,0.0000665798556354792
639,0.0425572395324707,0.0000734824471858816
640,0.0424442291259766,0.0000864851688289996
641,0.0423593521118164,0.0000895743392888877
642,0.0422024726867676,0.0000715351098379347
643,0.042078971862793,0.0000746383441806866
644,0.0419626235961914,0.0000830600509288223
645,0.0417509078979492,0.000102904066065157
646,0.0415372848510742,0.0000774709980379726
647,0.0413870811462402,0.0000751907337369171
648,0.0412626266479492,0.0000843570620656435
649,0.0411653518676758,0.000085360510795413
650,0.0410122871398926,0.0000927420691739546
651,0.0407905578613281,0.0000793529241283827
652,0.0405483245849609,0.000085952460479625
653,0.0404224395751953,0.000106190254072262
654,0.0403203964233398,0.0000877769010962985
655,0.0402741432189941,0.0000696508775196465
656,0.043243408203125,0.0000539332126796213
657,0.0327596664428711,0.0000677595500887158
658,0.0374760627746582,0.0000841060189089603
659,0.0393466949462891,0.0000668933025999076
660,0.0394115447998047,0.0000681660357609117
661,0.0394144058227539,0.0000843678428653381
662,0.0393571853637695,0.0000757751108608093
663,0.039027214050293,0.0000765884200064507
664,0.0389590263366699,0.0000764933602599345
665,0.0389509201049805,0.0000804103551079038
666,0.0386166572570801,0.0000916644249549911
667,0.0384454727172852,0.000067623511891311
668,0.0382938385009766,0.0000635500686327142
669,0.0382614135742187,0.0000520877757465834
670,0.0379619598388672,0.000063730494776382
671,0.0379166603088379,0.0000801128999396234
672,0.0378289222717285,0.0000626183601910696
673,0.0375409126281738,0.0000645458585437233
674,0.0374159812927246,0.0000700966841321916
675,0.037386417388916,0.0000457490402353421
676,0.0371866226196289,0.0000772476196289063
677,0.0369329452514648,0.000072750099953829
678,0.037010669708252,0.0000601514529943222
679,0.0368809700012207,0.00006144172143897
680,0.0368046760559082,0.0000567456253082742
681,0.0365252494812012,0.0000699863109214803
682,0.0365328788757324,0.0000470814821548352
683,0.0364723205566406,0.000044726207044076
684,0.0363306999206543,0.0000684439904970254
685,0.0362415313720703,0.0000616449206154306
686,0.0360116958618164,0.0000562536499080831
687,0.0358734130859375,0.0000465972629415628
688,0.035891056060791,0.0000503125345089025
689,0.0357856750488281,0.0000661533153459136
690,0.0357275009155273,0.0000631660767871318
691,0.0356307029724121,0.0000678417123775771
692,0.0354366302490234,0.0000626564751658027
693,0.0353679656982422,0.0000657948889106418
694,0.0351486206054687,0.0000661962647975093
695,0.035092830657959,0.0000419860465596772
696,0.0349202156066895,0.0000381193955400507
697,0.0347647666931152,0.0000616725777214994
698,0.0345726013183594,0.0000619558099683367
699,0.0343327522277832,0.0000786044035439134
700,0.0342435836791992,0.0000595798440835467
701,0.0341172218322754,0.0000554844652012042
702,0.0339689254760742,0.0000660673326802568
703,0.0337772369384766,0.0000761223890762157
704,0.0335779190063477,0.0000867581589931042
705,0.0334596633911133,0.0000834505897610994
706,0.0333027839660645,0.0000678031588038987
707,0.0331583023071289,0.00008017389727823
708,0.0329179763793945,0.0000764666034141582
709,0.0327162742614746,0.0000818328142565931
710,0.0326428413391113,0.0000742228858393021
711,0.0324440002441406,0.0000635214392501901
712,0.0324883460998535,0.0000582219927548467
713,0.0324206352233887,0.0000585801775059361
714,0.0323338508605957,0.0000687853095675102
715,0.0322198867797852,0.0000614435717309746
716,0.0320806503295898,0.0000729934746169906
717,0.0320343971252441,0.0000692087700142628
718,0.0320415496826172,0.0000538878733661223
719,0.0320224761962891,0.0000698187956629692
720,0.0318732261657715,0.0000641412447920201
721,0.0318598747253418,0.0000640543361012596
722,0.0318326950073242,0.0000632542059216188
723,0.031766414642334,0.0000521357708592298
724,0.0317072868347168,0.0000417021289220054
725,0.031651496887207,0.0000502526190990107
726,0.0315761566162109,0.0000685618214906327
727,0.0313801765441895,0.0000644312700964565
728,0.0313940048217773,0.0000553757625127199
729,0.0313453674316406,0.0000548424924557872
730,0.0312213897705078,0.0000594260400846848
731,0.0311574935913086,0.0000504591955704142
732,0.0309514999389648,0.0000631066551592477
733,0.030827522277832,0.0000604766008993736
734,0.0307822227478027,0.0000588898716648109
735,0.030604362487793,0.000075282907981148
736,0.0303807258605957,0.000065089582073737
737,0.030357837677002,0.0000549356969024515
738,0.0301179885864258,0.0000628448943228401
739,0.0300502777099609,0.0000728032124858319
740,0.0299863815307617,0.0000684024523922266
741,0.0296969413757324,0.000053866772310663
742,0.0296425819396973,0.0000517307884448818
743,0.029548168182373,0.000038808071102763
744,0.0293879508972168,0.0000540342980556474
745,0.0293045043945312,0.0000567886830772565
746,0.0292296409606934,0.0000568137016624698
747,0.0291695594787598,0.000063300918495201
748,0.028998851776123,0.0000461769458529538
749,0.0289030075073242,0.0000454523620406817
750,0.0288786888122559,0.0000725466640548309
751,0.0287575721740723,0.0000671020185598192
752,0.0286273956298828,0.0000606371149181135
753,0.0286836624145508,0.0000586897249038494
754,0.0285725593566895,0.0000594375174632927
755,0.0284419059753418,0.0000658208022732581
756,0.0284252166748047,0.0000605339091207823
757,0.0284552574157715,0.0000713584855609421
758,0.0283551216125488,0.0000786159732236264
759,0.0281562805175781,0.0000669901054800115
760,0.0281543731689453,0.0000576273044370993
761,0.0280847549438477,0.0000555520405561602
762,0.0279960632324219,0.0000470585370786147
763,0.0281229019165039,0.0000521793644709763
764,0.0280380249023437,0.0000473619572556414
765,0.0279626846313477,0.0000597142166082625
766,0.027747631072998,0.0000597675006006684
767,0.0276598930358887,0.000066809973975643
768,0.0276484489440918,0.0000518164264154853
769,0.0277056694030762,0.000048555510919677
770,0.027489185333252,0.0000596027373962393
771,0.0273251533508301,0.0000545869216633761
772,0.027186393737793,0.0000498779417163752
773,0.0271453857421875,0.0000502299909372461
774,0.0270252227783203,0.000040387853961677
775,0.0269742012023926,0.0000447147673035437
776,0.0268387794494629,0.0000407081833302487
777,0.0267491340637207,0.0000446473404875455
778,0.0266523361206055,0.0000496220033675836
779,0.0265178680419922,0.0000618768560997453
780,0.0264348983764648,0.0000680491901059584
781,0.026280403137207,0.0000681076379910313
782,0.0261287689208984,0.0000567376109553908
783,0.0260839462280273,0.0000615249294902394
784,0.0260171890258789,0.00005733756162616
785,0.0258212089538574,0.0000531903247173782
786,0.0258173942565918,0.0000649374482465255
787,0.0257687568664551,0.000048560193451239
788,0.0257101058959961,0.0000390693783757725
789,0.0256447792053223,0.000061803320086957
790,0.0254144668579102,0.0000734298259528157
791,0.0254206657409668,0.0000540353500331428
792,0.0254197120666504,0.0000490841264055549
793,0.0253267288208008,0.0000652535579108558
794,0.0253200531005859,0.0000595922457196414
795,0.0252785682678223,0.0000477242297676438
796,0.0251045227050781,0.0000364359444435597
797,0.0250391960144043,0.0000489995135265934
798,0.0251107215881348,0.0000672543271886071
799,0.0250148773193359,0.000051091716363086
800,0.0249552726745605,0.0000396642824693777
801,0.0248889923095703,0.0000411215031859405
802,0.0249156951904297,0.0000613250404959594
803,0.0247602462768555,0.0000560116235594516
804,0.0247340202331543,0.0000597541840570415
805,0.0246844291687012,0.0000560309023993227
806,0.0246572494506836,0.0000694072479040609
807,0.0245575904846191,0.0000658725984166303
808,0.024439811706543,0.0000573504481423125
809,0.024324893951416,0.000046069725128601
810,0.0242724418640137,0.0000512283804347335
811,0.0243101119995117,0.0000532896192466061
812,0.0240702629089355,0.0000515315161381994
813,0.0240468978881836,0.0000544336297847064
814,0.0239553451538086,0.0000537706579552095
815,0.0238432884216309,0.0000633278523831949
816,0.0237307548522949,0.0000596827948364826
817,0.0237631797790527,0.0000517285907352373
818,0.0236396789550781,0.0000588744256472567
819,0.023500919342041,0.000045803677836116
820,0.0234928131103516,0.0000481664540669647
821,0.0234370231628418,0.0000414334175879237
822,0.0232605934143066,0.0000584422250232699
823,0.0231952667236328,0.0000742994311289544
824,0.0231156349182129,0.0000694661897179608
825,0.0231881141662598,0.000060823378616278
826,0.0230307579040527,0.0000607279781390053
827,0.0229225158691406,0.000070223075075169
828,0.0229415893554687,0.000050945760424048
829,0.0229072570800781,0.000051023804090101
830,0.0228438377380371,0.0000666958663364634
831,0.0227546691894531,0.0000451348473480706
832,0.0226683616638184,0.0000431715417562099
833,0.0226917266845703,0.0000534759639094942
834,0.0227165222167969,0.000048083772925432
835,0.0226502418518066,0.000055101004420913
836,0.0226774215698242,0.0000732329357781013
837,0.022575855255127,0.0000651681326257603
838,0.022514820098877,0.0000546368830085886
839,0.0225191116333008,0.0000576835016832045
840,0.0225343704223633,0.0000698122821079907
841,0.0224733352661133,0.000081243033082484
842,0.0225667953491211,0.0000578959646554415
843,0.0224480628967285,0.0000603731207094079
844,0.0224227905273437,0.000060066342338561
845,0.0224361419677734,0.0000638872823641878
846,0.0223393440246582,0.0000648305667919705
847,0.0223360061645508,0.000073744990129847
848,0.0222511291503906,0.0000659915752635458
849,0.0222287178039551,0.0000579254117682022
850,0.0221667289733887,0.0000741431949081709
851,0.022101879119873,0.0000525387135346959
852,0.0220632553100586,0.0000459832740763893
853,0.0220417976379395,0.0000442573217344399
854,0.0218563079833984,0.0000480908654504245
855,0.0218572616577148,0.0000616467648085297
856,0.021726131439209,0.0000683525733459065
857,0.0216665267944336,0.000064732290742282
858,0.0215897560119629,0.0000582405399207643
859,0.0215210914611816,0.0000612842424361378
860,0.0213913917541504,0.0000565961717151128
861,0.0214104652404785,0.0000717715167539772
862,0.0212206840515137,0.000063878384290026
863,0.0210714340209961,0.0000570602957012086
864,0.0210814476013184,0.0000778238561932096
865,0.0210256576538086,0.000081487550077568
866,0.0209097862243652,0.0000717826039712584
867,0.020848274230957,0.0000634103783030674
868,0.0207605361938477,0.0000676453636127048
869,0.0205831527709961,0.000063363746424723
870,0.0206408500671387,0.0000715033178671907
871,0.0204358100891113,0.0000718649126070405
872,0.0204391479492187,0.0000592401805671502
873,0.0203719139099121,0.0000569605886709153
874,0.0202779769897461,0.0000430970847190028
875,0.0203242301940918,0.0000526586712599923
876,0.0201959609985352,0.0000693138208593026
877,0.0201511383056641,0.0000652343905436046
878,0.0201101303100586,0.0000452480525606195
879,0.0201563835144043,0.0000638605844222382
880,0.0201215744018555,0.0000854962509011303
881,0.0200023651123047,0.0000642934943797423
882,0.0200462341308594,0.0000699164261697782
883,0.0198745727539062,0.0000615323203160802
884,0.019981861114502,0.0000608803604079355
885,0.0200099945068359,0.0000660053558066902
886,0.0199594497680664,0.0000740634182310537
887,0.0198793411254883,0.0000575947441268846
888,0.0198817253112793,0.0000720923537782017
889,0.0197844505310059,0.000078539292338927
890,0.019925594329834,0.0000886968385588564
891,0.0198936462402344,0.0000813744649747895
892,0.019981861114502,0.0000807236159034491
893,0.0199975967407227,0.0000611561083405879
894,0.0197968482971191,0.0000635858372338648
895,0.0198931694030762,0.0000621408652180867
896,0.0198888778686523,0.0000697308113343988
897,0.0198473930358887,0.0000732236207833706
898,0.0198802947998047,0.0000654622919021217
899,0.0198421478271484,0.0000649777021700935
900,0.0198197364807129,0.0000767826284426859
