Wavelength (nm),Absorbance (AU),Std.Dev.
200,0.932543754577637,0.24291881771891
201,1.07517147064209,0.16300404942637
202,1.11693286895752,0.109217939687624
203,1.85181713104248,0.14882568998172
204,2.16200923919678,0.212397292504592
205,2.70384073257446,0.314283242153997
206,2.33101177215576,0.171711236791108
207,2.97355937957764,0.169345624002076
208,3.32903718948364,0.262221124650343
209,2.74925994873047,0.156886520874576
210,2.90908527374268,0.211601061328325
211,2.9469199180603,0.266033979726539
212,3.35476160049438,0.245138585345903
213,3.23412132263184,0.293593084751774
214,3.16162061691284,0.19991167025294
215,3.00900793075562,0.198763457988246
216,3.05945491790771,0.845791078711596
217,3.77981376647949,1.68666790827729
218,3.74238777160645,0.797219594610701
219,2.99675035476685,0.297612929508358
220,3.17483615875244,0.185752353329852
221,2.9726767539978,0.119998035414827
222,3.23024463653564,0.130040582044666
223,2.91013097763062,0.345261458685321
224,3.46969985961914,0.690434521950896
225,3.69465684890747,0.404556264917965
226,3.19631576538086,0.624865708228826
227,3.99999952316284,0.963506474582553
228,3.4907488822937,0.51340074236957
229,3.36407947540283,0.568262046004911
230,3.69396686553955,0.360762860212347
231,3.45268726348877,0.549574809014319
232,3.97776746749878,1.11778829998965
233,3.42726230621338,0.531336160292498
234,2.97494649887085,0.0775122454413454
235,2.82107830047607,0.0447037417900258
236,2.6328763961792,0.0248076189366474
237,2.57632112503052,0.0172715472943114
238,2.34650039672852,0.0152475544578929
239,2.23474645614624,0.0096452928739095
240,2.15874004364014,0.0112995840494013
241,2.07358503341675,0.0107773292710088
242,2.02845811843872,0.00976009212159238
243,1.95757007598877,0.00856125496771578
244,1.95470523834229,0.00955975008051297
245,1.90508365631104,0.00540643681219958
246,1.91419792175293,0.00750037391048429
247,1.89372730255127,0.00527239188671734
248,1.88979387283325,0.00411274611423636
249,1.89453840255737,0.00443671431772125
250,1.91101980209351,0.00587080793770071
251,1.89242124557495,0.0092656915671931
252,1.92976665496826,0.00896926106183141
253,1.92183685302734,0.0100426482687715
254,1.95013475418091,0.00950542954836315
255,1.94488334655762,0.0130298265553346
256,1.95073080062866,0.0117263769126199
257,1.93505239486694,0.0105193166615286
258,1.91876888275146,0.0154067532996864
259,1.94822931289673,0.00867687253173142
260,1.89861965179443,0.00834308391584077
261,1.90063810348511,0.013274830781537
262,1.8828444480896,0.00872290400876248
263,1.88060140609741,0.0101138034890523
264,1.84222888946533,0.0139304638195387
265,1.82425594329834,0.0130817577462183
266,1.80971717834473,0.0117368558249867
267,1.75801801681519,0.00762377722894647
268,1.74360513687134,0.0071291048205168
269,1.7171573638916,0.0107859673062117
270,1.71477794647217,0.00829629215700498
271,1.69366073608398,0.00813738502561852
272,1.69584894180298,0.0078317880949484
273,1.68047189712524,0.00730231506661989
274,1.63733625411987,0.00723865116530808
275,1.61623096466064,0.00905400535772176
276,1.57556438446045,0.00505450698553794
277,1.57394981384277,0.00420522925020726
278,1.5582103729248,0.00544386036254046
279,1.53991317749023,0.00412247187274616
280,1.526282787323,0.00233274897995439
281,1.49957227706909,0.00180270178032832
282,1.45044898986816,0.00273515656064557
283,1.41004991531372,0.00288709837775032
284,1.33539056777954,0.00274221284697031
285,1.26888751983643,0.002216362091313
286,1.2064847946167,0.00179198220897256
287,1.1497015953064,0.00138930415528443
288,1.09275531768799,0.000978081237481242
289,1.04939651489258,0.00134567467503033
290,1.01582622528076,0.00134716615887611
291,0.985861301422119,0.000957739747794189
292,0.963236331939697,0.000628916216854232
293,0.941984176635742,0.00067739614915948
294,0.928666591644287,0.00112349148946867
295,0.915027618408203,0.00121544659857346
296,0.904978275299072,0.000673453444510094
297,0.894822597503662,0.000803227062271231
298,0.887250900268555,0.00122320395837353
299,0.881031036376953,0.00169540871509759
300,0.873040676116943,0.0013292673751692
301,0.865382194519043,0.000870236044021774
302,0.856793403625488,0.00107004808201726
303,0.847988128662109,0.00109550242022274
304,0.837777137756348,0.00127253177823293
305,0.829890251159668,0.00110376009300884
306,0.816040515899658,0.00140073688966599
307,0.804249286651611,0.00130192437791147
308,0.796884059906006,0.00131641880901017
309,0.781535625457764,0.0003866699535959
310,0.769153118133545,0.000469409310078029
311,0.754695892333984,0.000967114160473339
312,0.737140655517578,0.000790241032919789
313,0.724476337432861,0.00053209215619393
314,0.707678318023682,0.000825492026802175
315,0.690382480621338,0.000767939396401041
316,0.674620151519775,0.000615302509743314
317,0.655110359191895,0.000550057652822142
318,0.63728141784668,0.000678244162672362
319,0.619390964508057,0.000781221687280701
320,0.601670742034912,0.000925864040922119
321,0.582319259643555,0.000670519181601557
322,0.562618732452393,0.000652647769205968
323,0.544089317321777,0.000538507722016031
324,0.525003910064697,0.000450287808889436
325,0.506057262420654,0.000456530180665292
326,0.486242294311523,0.000549130938267202
327,0.469816207885742,0.000427578047813013
328,0.45046854019165,0.000415644484615364
329,0.43130350112915,0.000310370811825116
330,0.414078712463379,0.000380122667385238
331,0.3955078125,0.000409036239639164
332,0.377721309661865,0.000400488713507709
333,0.361691474914551,0.000272670814134064
334,0.34458065032959,0.000253124638766161
335,0.328948974609375,0.000354294821807901
336,0.314088821411133,0.000247147049691211
337,0.297706604003906,0.000176277610548742
338,0.283198833465576,0.000204664818630008
339,0.269950866699219,0.000267627589672705
340,0.255159854888916,0.00033158256212884
341,0.24216890335083,0.000241959033625784
342,0.22859001159668,0.000262951374226462
343,0.215723991394043,0.000187832687440646
344,0.203812599182129,0.000194343757232452
345,0.1918044090271,0.000246933518959383
346,0.180290222167969,0.000206315707187738
347,0.16885232925415,0.00023970447905537
348,0.157865524291992,0.000233943910315887
349,0.147912979125977,0.000241560263860486
350,0.137655258178711,0.000279847761792485
351,0.127607822418213,0.000253885227029953
352,0.118526935577393,0.000248621998043808
353,0.109823226928711,0.000163050420507046
354,0.100584506988525,0.000149063292124568
355,0.0925655364990234,0.000138876724636624
356,0.0838475227355957,0.000164704275809042
357,0.0757646560668945,0.000246660814824329
358,0.0684652328491211,0.000225692623422864
359,0.0607638359069824,0.00029449240530489
360,0.0550446510314941,0.000285357459406853
361,0.0490574836730957,0.000345309127277629
362,0.0433187484741211,0.000369710886693981
363,0.0377721786499023,0.000366240738609827
364,0.0334253311157227,0.000238761655018404
365,0.0285325050354004,0.000238761655018404
366,0.0234670639038086,0.000347043118916912
367,0.0197248458862305,0.000239222126119128
368,0.0157437324523926,0.00022376622021969
369,0.0114388465881348,0.000191272930320832
370,0.00742197036743164,0.0002047847667644
371,0.00378990173339844,0.00026065159547265
372,0.000239849090576172,0.000212217715194542
373,-0.00281906127929687,0.00018791982407516
374,-0.00644922256469727,0.000130406027214045
375,-0.00909948348999023,0.000180987185123847
376,-0.0122976303100586,0.000224638385039532
377,-0.015380859375,0.00020410412862068
378,-0.0173940658569336,0.000163887758947269
379,-0.0198974609375,0.000153185746074638
380,-0.0226054191589355,0.000146902996169813
381,-0.0249423980712891,0.000174259028755455
382,-0.026731014251709,0.000185317349265917
383,-0.0288205146789551,0.000117586534959165
384,-0.0305542945861816,0.000115473381446517
385,-0.032294750213623,0.000143317927506784
386,-0.0336465835571289,0.00018469793521883
387,-0.0349655151367187,0.000224816457509065
388,-0.0366668701171875,0.000163108978956591
389,-0.0376358032226562,0.000180499083673325
390,-0.0387163162231445,0.000204495883546636
391,-0.0395865440368652,0.000190806375448962
392,-0.0403189659118652,0.000210388422081361
393,-0.0406961441040039,0.000215509295485685
394,-0.0422563552856445,0.00021579607901947
395,-0.0426602363586426,0.000158723039408619
396,-0.0433120727539063,0.000197463558294712
397,-0.0433683395385742,0.000223237211703035
398,-0.0441279411315918,0.000171597786887245
399,-0.0450019836425781,0.000139679921042478
400,-0.0455136299133301,0.000212346246316007
401,-0.0455455780029297,0.00017454063862203
402,-0.0459995269775391,0.000197486586383548
403,-0.0461082458496094,0.000198446770159577
404,-0.0461859703063965,0.000180115729497011
405,-0.0462131500244141,0.000204789207938683
406,-0.0464668273925781,0.000182463593774484
407,-0.0466203689575195,0.000237359555939983
408,-0.046259880065918,0.000215703337835323
409,-0.0467114448547363,0.00020334519202923
410,-0.0465631484985352,0.000197468164127316
411,-0.0465364456176758,0.000167743694616074
412,-0.0463333129882813,0.000151784091032657
413,-0.0460858345031738,0.000176226008542265
414,-0.0463390350341797,0.000170800913504783
415,-0.0460634231567383,0.000190925502872348
416,-0.0457491874694824,0.000221055041419226
417,-0.04541015625,0.000210811643671388
418,-0.0454320907592773,0.000172140195417758
419,-0.0448155403137207,0.000194240773804956
420,-0.0446105003356934,0.000171907566281149
421,-0.0438237190246582,0.000223615783663577
422,-0.0436916351318359,0.000209165802974781
423,-0.0434641838073731,0.000201742132199346
424,-0.0434842109680176,0.000114796008124581
425,-0.042811393737793,0.000126148439534229
426,-0.0426135063171387,0.000199534558572724
427,-0.0413999557495117,0.000179168984463766
428,-0.0418014526367188,0.000152605770970817
429,-0.0409774780273438,0.000153736914288576
430,-0.0398058891296387,0.000163125706081146
431,-0.0400834083557129,0.000149562770066969
432,-0.0398950576782227,0.000144376968627042
433,-0.039130687713623,0.000151472185042752
434,-0.0383424758911133,0.000119270309090026
435,-0.0387654304504395,0.000121865249293021
436,-0.0373616218566895,0.000146645839434404
437,-0.0374064445495605,0.000123426238112877
438,-0.0368289947509766,0.0000951382744853205
439,-0.0366392135620117,0.0000787431275054334
440,-0.0364995002746582,0.0000767174529611617
441,-0.0351438522338867,0.000125273026143268
442,-0.0354037284851074,0.000125505134317307
443,-0.035250186920166,0.000133371276432652
444,-0.0345406532287598,0.000149154785039125
445,-0.0342931747436523,0.000127482394180453
446,-0.0342040061950684,0.000166256918581702
447,-0.0339446067810059,0.000146865844726562
448,-0.0337352752685547,0.000134417341684103
449,-0.0332446098327637,0.000148215839324356
450,-0.0332322120666504,0.000173731088677405
451,-0.032991886138916,0.000148797644537675
452,-0.032710075378418,0.000127899068433229
453,-0.0325613021850586,0.000110568656414156
454,-0.0325031280517578,0.000141291927242556
455,-0.0322542190551758,0.000130315329380331
456,-0.0321187973022461,0.000138289352786754
457,-0.0319051742553711,0.000131427255073183
458,-0.0317540168762207,0.000114794027431692
459,-0.031832218170166,0.000107765197753906
460,-0.0315752029418945,0.000121728971196817
461,-0.0310878753662109,0.000114510435606591
462,-0.0316886901855469,0.000161616145048125
463,-0.0312366485595703,0.000127325343349635
464,-0.0307960510253906,0.000103439597925589
465,-0.0308218002319336,0.0000862034016778672
466,-0.0306529998779297,0.000092104895802487
467,-0.0310606956481934,0.000112672897338701
468,-0.0306529998779297,0.000110086406522896
469,-0.0307202339172363,0.000121816729368864
470,-0.0307826995849609,0.000105118532520152
471,-0.0306978225708008,0.000124771073611824
472,-0.0304217338562012,0.000139953127501252
473,-0.0302228927612305,0.000119791516413197
474,-0.0304861068725586,0.000101980742862432
475,-0.0299582481384277,0.000120759422192337
476,-0.0300660133361816,0.0000862099955295958
477,-0.0301694869995117,0.0000549667299308379
478,-0.0296921730041504,0.0000710487365722656
479,-0.0298333168029785,0.000108561904427495
480,-0.0295214653015137,0.0000993310287482396
481,-0.0293707847595215,0.000103492339597812
482,-0.0294408798217773,0.0000720134625574221
483,-0.0294513702392578,0.0000961178816901902
484,-0.0293178558349609,0.0000606952081265996
485,-0.0277242660522461,0.0000588319281889911
486,-0.0278477668762207,0.0000503351255632082
487,-0.0294408798217773,0.0000617241711627365
488,-0.0289359092712402,0.0000700577487371498
489,-0.0284934043884277,0.000064547619854041
490,-0.0283603668212891,0.0000777420070936978
491,-0.0283637046813965,0.000072915558373293
492,-0.0281996726989746,0.0000758590821971421
493,-0.0279250144958496,0.0000881568614836626
494,-0.0278897285461426,0.0000874811017767169
495,-0.0277485847473145,0.0000758455930737823
496,-0.0273098945617676,0.0000813185624744776
497,-0.0271377563476562,0.0000847013670566202
498,-0.0272355079650879,0.000120344479021815
499,-0.0266060829162598,0.000131080791521466
500,-0.0266623497009277,0.0000865324787562249
501,-0.0261960029602051,0.0000805629044010149
502,-0.0261707305908203,0.0000981682528111097
503,-0.0259222984313965,0.0000815224212074828
504,-0.0255794525146484,0.0000719186788601031
505,-0.025327205657959,0.0000727313450940294
506,-0.0251641273498535,0.0000588000349386783
507,-0.0250544548034668,0.0000715064977003307
508,-0.0246391296386719,0.000086674253597273
509,-0.0243616104125977,0.0000749757252581329
510,-0.0239934921264648,0.0000836275045023043
511,-0.0236773490905762,0.000107077284976322
512,-0.0235199928283691,0.0000931310701294554
513,-0.0233359336853027,0.0000658449788772959
514,-0.0231003761291504,0.0000772520346616095
515,-0.0227580070495605,0.0000763669260965993
516,-0.0224790573120117,0.0000767989136706857
517,-0.0221953392028809,0.0000756775272922162
518,-0.0218696594238281,0.0000655802795892846
519,-0.0216760635375977,0.0000781271164018842
520,-0.0214557647705078,0.0000894117354075182
521,-0.0210680961608887,0.0000972724428083034
522,-0.0209441184997559,0.0000943366612555697
523,-0.0206141471862793,0.0000876732255140297
524,-0.0204586982727051,0.0000715573558132327
525,-0.0201277732849121,0.0000985658277717913
526,-0.019805908203125,0.0000987202637600195
527,-0.0195770263671875,0.0000973098355127006
528,-0.0195193290710449,0.000103551641869662
529,-0.0190634727478027,0.0000772270128055979
530,-0.0189437866210937,0.0000789881868013331
531,-0.0187039375305176,0.0000735303925486912
532,-0.0184931755065918,0.0000605310919522353
533,-0.0181980133056641,0.0000558388324676747
534,-0.0180692672729492,0.0000736601521658885
535,-0.0177831649780273,0.0000594795822367556
536,-0.0176095962524414,0.000100767324058664
537,-0.0174684524536133,0.000067059649215577
538,-0.0172138214111328,0.0000462728635557485
539,-0.0170798301696777,0.0000524802565794401
540,-0.0168495178222656,0.0000642103329442554
541,-0.016716480255127,0.0000722954955541047
542,-0.0165681838989258,0.0000608728904250353
543,-0.0163578987121582,0.0000525819730838403
544,-0.0161275863647461,0.0000455784991600984
545,-0.0160951614379883,0.0000586771325168429
546,-0.0159449577331543,0.0000578163825358235
547,-0.0156106948852539,0.0000785117847285745
548,-0.0155301094055176,0.0000694056099169247
549,-0.015507698059082,0.0000627308233717366
550,-0.0153536796569824,0.0000743009612304018
551,-0.0151863098144531,0.000065628801100745
552,-0.0150146484375,0.0000736925563695965
553,-0.0149998664855957,0.0000535163415779045
554,-0.0147914886474609,0.0000565630178399431
555,-0.0146317481994629,0.0000626256219747182
556,-0.0145072937011719,0.0000601873524684512
557,-0.0146241188049316,0.0000588241980798109
558,-0.0142316818237305,0.0000740833704541629
559,-0.014258861541748,0.0000808305793859062
560,-0.0140905380249023,0.0000724463011495834
561,-0.0140142440795898,0.0000659726223166425
562,-0.0139732360839844,0.0000632524085952394
563,-0.0137519836425781,0.0000686281160540715
564,-0.0137438774108887,0.0000673624260312868
565,-0.0136938095092773,0.0000614213645481286
566,-0.0135760307312012,0.0000752844180941412
567,-0.0134758949279785,0.0000749635937544318
568,-0.013303279876709,0.0000587516788432782
569,-0.0130562782287598,0.0000526608301543318
570,-0.0128922462463379,0.000051245021851216
571,-0.012911319732666,0.0000589930629509446
572,-0.012812614440918,0.000074114055693624
573,-0.0126862525939941,0.0000667129097186281
574,-0.0124154090881348,0.00006330271444426
575,-0.0126991271972656,0.0000621006031306674
576,-0.0124220848083496,0.0000461954070322197
577,-0.0122971534729004,0.0000520812275316168
578,-0.0118222236633301,0.0000539226720551574
579,-0.0127925872802734,0.0000646655183623891
580,-0.0119309425354004,0.0000436247368296916
581,-0.0120692253112793,0.0000475464275008579
582,-0.0114636421203613,0.00005016544467864
583,-0.0130295753479004,0.0000711510708545104
584,-0.0118923187255859,0.0000748907634635821
585,-0.0113210678100586,0.0000527858949504419
586,-0.0122132301330566,0.0000397537511584528
587,-0.0116801261901855,0.0000512516769048383
588,-0.0117754936218262,0.0000631732756106537
589,-0.0120711326599121,0.0000732329357781013
590,-0.0117840766906738,0.0000552112776507635
591,-0.0119132995605469,0.0000411795200488741
592,-0.0114850997924805,0.0000482643067381674
593,-0.0112056732177734,0.000056936633002241
594,-0.0117921829223633,0.0000535885204204037
595,-0.011378288269043,0.0000612712555383289
596,-0.0115337371826172,0.0000613917424752468
597,-0.0115017890930176,0.0000525765675867215
598,-0.0114030838012695,0.0000401627401581758
599,-0.0109705924987793,0.0000385051541244345
600,-0.0113849639892578,0.0000458049188423298
601,-0.0111956596374512,0.0000505199911604335
602,-0.0111722946166992,0.0000481144996495367
603,-0.0109958648681641,0.000046040103055049
604,-0.0110883712768555,0.0000489217263362145
605,-0.0111484527587891,0.0000439298767392356
606,-0.0108833312988281,0.0000444840768970477
607,-0.0108795166015625,0.0000422498980174622
608,-0.0109481811523437,0.0000348955544279816
609,-0.0108795166015625,0.0000295730353681012
610,-0.0106081962585449,0.0000410523285866373
611,-0.0108170509338379,0.0000463023367202373
612,-0.0107688903808594,0.000043364662834539
613,-0.0107688903808594,0.0000477254208336875
614,-0.0106024742126465,0.0000481263123966763
615,-0.0105762481689453,0.0000700317797811145
616,-0.0106487274169922,0.0000509914862063372
617,-0.0106992721557617,0.0000463072470905486
618,-0.0106697082519531,0.0000377771210379966
619,-0.0107555389404297,0.0000450163068497162
620,-0.0104222297668457,0.0000657222771394531
621,-0.0107598304748535,0.0000596951750846252
622,-0.0104522705078125,0.0000472417856490739
623,-0.0104184150695801,0.0000627761144288343
624,-0.0104212760925293,0.0000670528676360264
625,-0.0103635787963867,0.0000627960321454467
626,-0.0104184150695801,0.0000560978195206556
627,-0.0103278160095215,0.0000510805893911651
628,-0.0102934837341309,0.0000555878426391376
629,-0.0101723670959473,0.0000560593012366247
630,-0.010138988494873,0.000028844214327248
631,-0.0101461410522461,0.0000333726400774618
632,-0.0101518630981445,0.000064593397064896
633,-0.0100769996643066,0.0000534238529217163
634,-0.0101504325866699,0.0000629172129823522
635,-0.0100641250610352,0.0000576411123453931
636,-0.00997114181518555,0.0000475201184517091
637,-0.0100131034851074,0.0000536001872763795
638,-0.00990581512451172,0.0000452744263809133
639,-0.00992631912231445,0.0000372902206428434
640,-0.00998640060424805,0.0000667793373467281
641,-0.00992774963378906,0.0000675747402801256
642,-0.00982189178466797,0.0000629695920747032
643,-0.00983190536499023,0.0000809584681693435
644,-0.00977087020874023,0.0000666549444389593
645,-0.00978660583496094,0.0000498938942716464
646,-0.00979137420654297,0.0000484676296907715
647,-0.0097966194152832,0.0000724823850655545
648,-0.00960540771484375,0.0000787922003392595
649,-0.00956201553344727,0.0000675680103985951
650,-0.00952577590942383,0.000059955517860492
651,-0.00961875915527344,0.0000642032504014427
652,-0.00966167449951172,0.0000613417227905285
653,-0.00954532623291016,0.0000669272844677839
654,-0.00939226150512695,0.0000760342230302883
655,-0.00951480865478516,0.0000510115479926856
656,-0.00443601608276367,0.0000343107447399111
657,-0.0127482414245605,0.0000344413772196662
658,-0.0104150772094727,0.0000460005772845563
659,-0.00930118560791016,0.000075371952880028
660,-0.00929546356201172,0.0000677880666541517
661,-0.00918292999267578,0.0000651384691057915
662,-0.00911998748779297,0.0000659450446699921
663,-0.00913763046264648,0.0000769024661391198
664,-0.00918483734130859,0.0000586383697495955
665,-0.00906038284301758,0.0000637019464823122
666,-0.00915956497192383,0.0000819854901397365
667,-0.00920867919921875,0.0000658864038445125
668,-0.00918817520141602,0.0000455185963917656
669,-0.00904369354248047,0.0000441364244627937
670,-0.00902414321899414,0.0000417845140011191
671,-0.00905990600585938,0.0000455572926044319
672,-0.00890779495239258,0.0000334508998425305
673,-0.00893926620483398,0.0000331975933596601
674,-0.00894308090209961,0.0000476956352595239
675,-0.00893211364746094,0.000037582512846447
676,-0.00888824462890625,0.0000360240926685496
677,-0.00892305374145508,0.0000444738530226545
678,-0.00874996185302734,0.0000483560841907014
679,-0.0087127685546875,0.0000543824364707036
680,-0.00867509841918945,0.0000403751850285575
681,-0.00865840911865234,0.0000511917502760061
682,-0.00858879089355469,0.0000474830218677696
683,-0.00861978530883789,0.0000454898650273756
684,-0.00847721099853516,0.0000463783890372766
685,-0.00839042663574219,0.0000471381930420438
686,-0.00841569900512695,0.0000433436845843741
687,-0.00842475891113281,0.000046099328167883
688,-0.00833988189697266,0.0000381976030048905
689,-0.00827312469482422,0.0000418898118906393
690,-0.00827169418334961,0.0000550927508252375
691,-0.00823688507080078,0.0000458272512074575
692,-0.00823688507080078,0.0000432662393781125
693,-0.00818777084350586,0.0000429107080710416
694,-0.00814485549926758,0.0000451612872793258
695,-0.00821447372436523,0.0000424391767899037
696,-0.00810670852661133,0.0000364647947202781
697,-0.00808238983154297,0.0000505930741436235
698,-0.00817728042602539,0.0000462089405427931
699,-0.00824546813964844,0.0000470778599915385
700,-0.00823211669921875,0.0000349443890198109
701,-0.00816822052001953,0.0000385457297529026
702,-0.00819158554077148,0.0000352327487017735
703,-0.00815105438232422,0.0000373290713781343
704,-0.00827550888061523,0.0000508765360578504
705,-0.00824356079101563,0.0000367783359494661
706,-0.00827646255493164,0.0000385914184003798
707,-0.00814914703369141,0.0000323933559880806
708,-0.00821638107299805,0.0000441943420819607
709,-0.00833988189697266,0.0000517615465822393
710,-0.00834178924560547,0.0000332437926460238
711,-0.00826692581176758,0.0000431649578178824
712,-0.00822639465332031,0.0000469884249086039
713,-0.00825357437133789,0.0000433082607447034
714,-0.00811004638671875,0.0000374772469190535
715,-0.0081171989440918,0.0000348482826053495
716,-0.00811147689819336,0.0000388249118653334
717,-0.00809097290039063,0.0000453647345019972
718,-0.00797271728515625,0.0000326206805734388
719,-0.00787591934204102,0.0000325797047314408
720,-0.00787448883056641,0.000032108707352967
721,-0.0077977180480957,0.0000439454014929559
722,-0.00768709182739258,0.0000432083932710345
723,-0.00771093368530273,0.0000388614970413383
724,-0.00762081146240234,0.0000343297917739262
725,-0.00756168365478516,0.0000351867376465517
726,-0.00753498077392578,0.0000516075725771354
727,-0.00757694244384766,0.0000490980214168468
728,-0.0074458122253418,0.0000336541991555526
729,-0.00745391845703125,0.0000338277233210709
730,-0.00739669799804688,0.0000445632323930972
731,-0.007354736328125,0.0000465521052225294
732,-0.00737094879150391,0.0000441698972394169
733,-0.00740194320678711,0.0000343992652599651
734,-0.00728988647460938,0.0000310411467750397
735,-0.00734090805053711,0.0000480814085179403
736,-0.00746250152587891,0.0000504625750247297
737,-0.00734663009643555,0.000040258867370782
738,-0.0074152946472168,0.0000385958370121226
739,-0.00745153427124023,0.000052209858341612
740,-0.00747823715209961,0.00005739404257398
741,-0.00754642486572266,0.0000493647380886685
742,-0.00751876831054688,0.0000426249480591825
743,-0.00746488571166992,0.0000415738017732529
744,-0.00753307342529297,0.0000386032002411062
745,-0.00747919082641602,0.0000407563293974142
746,-0.007537841796875,0.0000526543532057612
747,-0.00743484497070313,0.0000449227676840642
748,-0.00749635696411133,0.0000382615395579066
749,-0.00749540328979492,0.0000319703224027564
750,-0.00729990005493164,0.0000301978566635865
751,-0.00729084014892578,0.0000329043553202583
752,-0.00734329223632813,0.0000281692333155776
753,-0.00727367401123047,0.0000395012891907236
754,-0.00726413726806641,0.0000444367717592846
755,-0.00728034973144531,0.000040179720495118
756,-0.00716161727905273,0.0000348768163713724
757,-0.00705766677856445,0.0000398622745316299
758,-0.00704813003540039,0.0000334975982469244
759,-0.00705480575561523,0.0000423795311716174
760,-0.00696659088134766,0.0000498654039856009
761,-0.00692939758300781,0.0000420807103594021
762,-0.00699377059936523,0.0000324231736326317
763,-0.00685453414916992,0.0000332907815698156
764,-0.00682544708251953,0.0000381462275909142
765,-0.00679111480712891,0.0000419657336781517
766,-0.00685882568359375,0.0000456906051730773
767,-0.00693321228027344,0.0000533429270038149
768,-0.00687551498413086,0.0000410343240896552
769,-0.00667476654052734,0.0000374332354778181
770,-0.00681447982788086,0.0000430746565283536
771,-0.00678682327270508,0.0000362819499748648
772,-0.00687360763549805,0.0000428470757339111
773,-0.00683450698852539,0.0000459709106545337
774,-0.00685930252075195,0.0000416694021138082
775,-0.00692319869995117,0.0000415519193838044
776,-0.00693273544311523,0.0000332378074722116
777,-0.0069117546081543,0.0000242759993623214
778,-0.00688934326171875,0.0000303302731463778
779,-0.00689888000488281,0.000041495108154007
780,-0.00688934326171875,0.0000453196029360222
781,-0.00692319869995117,0.0000568006933734241
782,-0.00697565078735352,0.0000465411142873691
783,-0.00689172744750977,0.0000511428692533106
784,-0.00691032409667969,0.0000346716688676557
785,-0.00705194473266602,0.0000358611978091491
786,-0.00695323944091797,0.0000387641042407207
787,-0.00696802139282227,0.0000386223380667888
788,-0.00693130493164063,0.0000446447940854852
789,-0.00682640075683594,0.0000513967641131178
790,-0.00694942474365234,0.0000497821190337807
791,-0.00691318511962891,0.0000447007814226454
792,-0.00687551498413086,0.0000388856244017806
793,-0.00686836242675781,0.0000420712535644927
794,-0.00681877136230469,0.0000353672084286006
795,-0.00671958923339844,0.0000273719689152037
796,-0.00675868988037109,0.0000334695870229966
797,-0.00676727294921875,0.0000395437176987947
798,-0.00664281845092773,0.0000498973120128068
799,-0.00670671463012695,0.0000450529111232752
800,-0.00670099258422852,0.0000368732658674502
801,-0.00663566589355469,0.0000445070720275041
802,-0.00656652450561523,0.0000389994789511173
803,-0.00663328170776367,0.000038758971524712
804,-0.00650835037231445,0.0000423768484983327
805,-0.00654268264770508,0.0000398101916757278
806,-0.00657463073730469,0.0000418321007078293
807,-0.0064387321472168,0.0000590931883338271
808,-0.00650930404663086,0.0000479120509608477
809,-0.00648784637451172,0.0000321485153891624
810,-0.00654363632202148,0.0000460795949214685
811,-0.00650358200073242,0.0000371665430425873
812,-0.00648069381713867,0.000046868508387371
813,-0.00645923614501953,0.0000371718956426562
814,-0.00647401809692383,0.0000458322124774956
815,-0.00653505325317383,0.000055372682916326
816,-0.00659084320068359,0.0000582346835591626
817,-0.00648403167724609,0.0000416919045540576
818,-0.00650978088378906,0.0000390111375527607
819,-0.0065608024597168,0.0000415409738664901
820,-0.00649166107177734,0.0000526770190416011
821,-0.00646591186523438,0.0000430680577789042
822,-0.00654029846191406,0.0000363813002540304
823,-0.00658607482910156,0.0000315434177561593
824,-0.00652027130126953,0.0000489855905730466
825,-0.00648880004882813,0.0000349411355037645
826,-0.00646495819091797,0.0000322103412128383
827,-0.00654411315917969,0.0000448847908680074
828,-0.00649213790893555,0.0000549315578407088
829,-0.00640392303466797,0.0000476706009949254
830,-0.00631523132324219,0.0000492471451874648
831,-0.00646018981933594,0.0000406285126518189
832,-0.00638008117675781,0.0000480364626636438
833,-0.00633096694946289,0.0000530597856133824
834,-0.00623846054077148,0.0000434576316454485
835,-0.00622177124023438,0.0000538604403819954
836,-0.00622892379760742,0.0000508284702428051
837,-0.00622081756591797,0.0000431181829473419
838,-0.00618362426757813,0.0000401860862716881
839,-0.00610208511352539,0.0000536044291398933
840,-0.00601100921630859,0.0000493992709631882
841,-0.00602149963378906,0.0000594920047733252
842,-0.00591325759887695,0.0000549625932060959
843,-0.00590801239013672,0.0000547968681395509
844,-0.00591087341308594,0.0000389484315363069
845,-0.00581073760986328,0.0000564815576388105
846,-0.00584220886230469,0.00005309833872633
847,-0.00580024719238281,0.0000560613291745217
848,-0.00587272644042969,0.0000471273387932046
849,-0.00576877593994141,0.0000631138607604541
850,-0.00580596923828125,0.0000419121959941918
851,-0.00569343566894531,0.0000287771323740515
852,-0.00569820404052734,0.0000428265075970809
853,-0.00566434860229492,0.00004295109213639
854,-0.00573825836181641,0.0000358699147742839
855,-0.00568628311157227,0.0000395659924104862
856,-0.00576162338256836,0.0000459845102357528
857,-0.00572633743286133,0.0000373366844288892
858,-0.00571107864379883,0.0000475595765678088
859,-0.00567197799682617,0.0000552802152488306
860,-0.00583171844482422,0.0000609316917496537
861,-0.00571918487548828,0.0000430865317306363
862,-0.00585699081420898,0.000049289833861669
863,-0.00586557388305664,0.0000467835334259454
864,-0.00581741333007813,0.0000513801718441428
865,-0.00578546524047852,0.0000420753067368618
866,-0.00582647323608398,0.0000415902060097613
867,-0.00580263137817383,0.0000559344417519195
868,-0.00587940216064453,0.0000590055879152517
869,-0.00586605072021484,0.0000593015594334816
870,-0.00580739974975586,0.000043174175050412
871,-0.00587654113769531,0.0000456831399977684
872,-0.00587654113769531,0.0000325779599353634
873,-0.00589418411254883,0.0000447566987238209
874,-0.00588846206665039,0.0000383298187300233
875,-0.00579929351806641,0.0000405423765926361
876,-0.00588321685791016,0.0000451851957906846
877,-0.00581836700439453,0.0000520561184101585
878,-0.00576543807983398,0.0000469000313031647
879,-0.00575685501098633,0.0000600114292893058
880,-0.00565671920776367,0.0000701696297676081
881,-0.00572013854980469,0.0000740311763575567
882,-0.00575351715087891,0.00006951690512293
883,-0.00568580627441406,0.0000665012630509441
884,-0.00564050674438477,0.0000559933532723905
885,-0.00555706024169922,0.000060548931805992
886,-0.00547552108764648,0.0000709174049661213
887,-0.0055394172668457,0.0000586073410767217
888,-0.00551843643188477,0.0000439570414600049
889,-0.0055241584777832,0.0000510839277372245
890,-0.00538253784179688,0.0000403955941315042
891,-0.00542354583740234,0.0000552102480794279
892,-0.00516796112060547,0.000067059649215577
893,-0.00514078140258789,0.0000570752367325374
894,-0.00531721115112305,0.0000694678262766812
895,-0.00514793395996094,0.0000366901328079043
896,-0.00507688522338867,0.0000345369700665127
897,-0.00506448745727539,0.000037643719114629
898,-0.00506734848022461,0.0000535503202109011
899,-0.00498771667480469,0.0000648814012422358
900,-0.0049901008605957,0.0000730230609909957
