Wavelength (nm),Absorbance (AU),Std.Dev.
200,0.872450828552246,0.148122352544247
201,0.946306228637695,0.14088585290001
202,1.34739589691162,0.111535665239247
203,2.02446794509888,0.14404545151462
204,2.06849527359009,0.268772993656618
205,2.90525436401367,0.448759955930646
206,2.48093175888062,0.257627478589939
207,2.98845624923706,0.284419532055806
208,3.02525901794434,0.17424458538821
209,2.90896081924439,0.293177009311887
210,2.93098974227905,0.59842169120764
211,3.93140411376953,0.2887852344236
212,3.04434204101563,0.611861413760042
213,3.24811029434204,1.30323646855387
214,3.99999952316284,0.747493369797101
215,3.76455497741699,0.306976328977878
216,2.97875499725342,0.519105205949382
217,3.99999952316284,0.506594091203389
218,3.44515562057495,0.297503959565299
219,3.22236824035645,0.469034744244596
220,3.68773126602173,0.423562524785118
221,3.56845426559448,0.267635144472172
222,3.37014293670654,0.195126864906407
223,3.0024733543396,0.29836821226111
224,3.18343448638916,0.61227275759052
225,3.29810380935669,0.414578098794425
226,3.41443490982056,0.639910043116413
227,3.99999952316284,0.588380324492585
228,3.41852474212646,0.339411317908831
229,3.07029008865356,0.275868103355967
230,3.31002569198608,0.371535510084711
231,3.55940294265747,0.568771999059432
232,3.81911277770996,0.655074747494275
233,3.4455509185791,0.322721032388801
234,3.07905292510986,0.133578615279396
235,2.88971471786499,0.0759587362602737
236,2.67585134506226,0.0363826875199163
237,2.59446334838867,0.0157910110954887
238,2.41001081466675,0.0173438675335175
239,2.29478454589844,0.00895616830494392
240,2.16627740859985,0.00812661961772131
241,2.12582492828369,0.00976772285816444
242,2.0805492401123,0.00746003430077386
243,2.01000356674194,0.0105811093288924
244,1.97270250320435,0.00716727916092575
245,1.93750905990601,0.00652534045942583
246,1.94968175888062,0.00796339228913892
247,1.92625665664673,0.00746240591408414
248,1.92357349395752,0.00771835343890481
249,1.93235921859741,0.011338420004565
250,1.9405837059021,0.00886124533634975
251,1.91928863525391,0.00893618055087461
252,1.94983196258545,0.00753172344286677
253,1.94907379150391,0.0130655157815036
254,1.99109697341919,0.0105819894670835
255,1.95442914962769,0.0100026919794668
256,1.99933862686157,0.00593266742198382
257,2.00040435791016,0.00483335240404159
258,1.97855186462402,0.00708980549783607
259,1.9689884185791,0.0137614991048435
260,1.9550609588623,0.015365350564023
261,1.9554123878479,0.0107977039444024
262,1.92042446136475,0.00932260814703248
263,1.9339714050293,0.00977763391263081
264,1.90385437011719,0.00984256949233797
265,1.87855195999146,0.00875274785355258
266,1.84928226470947,0.0121228174231209
267,1.80224895477295,0.00885683000936072
268,1.78982543945312,0.0101690871465931
269,1.7474513053894,0.00773619100655742
270,1.78800868988037,0.0126075646520164
271,1.78346109390259,0.00839782535185047
272,1.75492668151855,0.00747811442245711
273,1.73043727874756,0.00506637754998354
274,1.69479322433472,0.00644853106967634
275,1.66969728469849,0.00464218408230733
276,1.63554620742798,0.00656220185647093
277,1.63152694702148,0.00554597686158632
278,1.60019779205322,0.0063680175521042
279,1.588210105896,0.00408160485773938
280,1.57850885391235,0.00478863492366899
281,1.55042552947998,0.00385658158433206
282,1.50232839584351,0.00239091153391124
283,1.45021104812622,0.00166422261779625
284,1.37446165084839,0.00109897714093312
285,1.31039428710937,0.00112139123697956
286,1.23973178863525,0.000914970864611516
287,1.18322324752808,0.00129178064046001
288,1.12771892547607,0.00129852205269734
289,1.08624410629272,0.000869667316897179
290,1.05010652542114,0.000872206984785471
291,1.0173397064209,0.00108466273208911
292,0.993517875671387,0.000840065283721973
293,0.974059104919434,0.00112380230416186
294,0.96099328994751,0.00104517136028646
295,0.945784568786621,0.00109680341360639
296,0.938936233520508,0.00102367598361257
297,0.929629325866699,0.000800741212123056
298,0.919003963470459,0.000715741310600015
299,0.910773754119873,0.000619744504241477
300,0.904402256011963,0.000961954411275216
301,0.898569107055664,0.00102608974783047
302,0.886374950408936,0.00131183440071781
303,0.880918502807617,0.00105892038408798
304,0.875215530395508,0.000841017474009904
305,0.863027572631836,0.000909291328148107
306,0.849772930145264,0.000952880529021964
307,0.839076519012451,0.000720563900947119
308,0.832005500793457,0.000899977556170652
309,0.81633186340332,0.00108873357936726
310,0.80399227142334,0.000868411454781018
311,0.791555404663086,0.000588366817017768
312,0.775621891021729,0.000630464562416351
313,0.75939416885376,0.000706594800069507
314,0.7448410987854,0.000981022663113992
315,0.727423667907715,0.000636414532008136
316,0.711050510406494,0.000500249224069588
317,0.693947315216064,0.00053716843453733
318,0.676141738891602,0.000604289467673099
319,0.657230377197266,0.000523406492211584
320,0.639239311218262,0.000500699905686334
321,0.620352268218994,0.000588688254650589
322,0.600777626037598,0.000745439088665477
323,0.58360481262207,0.000579168540175556
324,0.562774181365967,0.000370948662754615
325,0.544355392456055,0.000441994866419085
326,0.525895595550537,0.000435485746280738
327,0.508311748504639,0.000460528922539978
328,0.489058494567871,0.000486781379698435
329,0.469997406005859,0.000451691407333942
330,0.452651500701904,0.000487744513196552
331,0.434579849243164,0.000479773066232679
332,0.416732788085938,0.000498369430360416
333,0.400251388549805,0.000333731510617611
334,0.383271217346191,0.000449851318908018
335,0.367024421691895,0.000304334195334254
336,0.351562023162842,0.000251336157379595
337,0.335935115814209,0.000284374103783804
338,0.320632457733154,0.000271118722697803
339,0.306764602661133,0.000253002444871149
340,0.291676044464111,0.000305878307437426
341,0.277972221374512,0.000215065716824798
342,0.264353275299072,0.00026684482230541
343,0.251609802246094,0.000256607514325594
344,0.239314079284668,0.000238647351179561
345,0.226721286773682,0.000250923293486946
346,0.214972972869873,0.000223973413089562
347,0.203379154205322,0.000232821571650194
348,0.192153930664062,0.000187313871896867
349,0.181436061859131,0.000174452032693018
350,0.170804977416992,0.000152104326775078
351,0.160597324371338,0.000181127835746892
352,0.150609493255615,0.000196387454597749
353,0.141708374023437,0.000207397305733823
354,0.131614685058594,0.000161759582621887
355,0.12339448928833,0.000150891651075146
356,0.114060878753662,0.000169780814811307
357,0.105625629425049,0.000227202773493696
358,0.097620964050293,0.000284827890836107
359,0.0894842147827148,0.000331664838639902
360,0.083158016204834,0.000359665470156043
361,0.0768632888793945,0.000416003187311531
362,0.0707359313964844,0.000341596502086111
363,0.0645179748535156,0.000299593413025999
364,0.0587291717529297,0.000298614297280999
365,0.0541200637817383,0.000298614297280999
366,0.0488467216491699,0.000349778826235229
367,0.044520378112793,0.000336315921554851
368,0.0403022766113281,0.000213260854487778
369,0.0353560447692871,0.000185017733164498
370,0.03076171875,0.000174519794215361
371,0.0265932083129883,0.000276526086556514
372,0.0229735374450684,0.000212692892373453
373,0.0192255973815918,0.000198781052450244
374,0.0155835151672363,0.000151282929226711
375,0.0121397972106934,0.000183586640740281
376,0.00885629653930664,0.000233722208567961
377,0.00486612319946289,0.000224860953592135
378,0.0021672248840332,0.000191425028495313
379,-0.000744819641113281,0.000180952005386039
380,-0.00315523147583008,0.00015418586838502
381,-0.00623512268066406,0.000177270586775297
382,-0.00855255126953125,0.000257682729702706
383,-0.0110664367675781,0.000156666950939712
384,-0.0133156776428223,0.000150275591647552
385,-0.015162467956543,0.000160529196347687
386,-0.0171060562133789,0.000177060109482946
387,-0.018427848815918,0.00021651137595697
388,-0.0203237533569336,0.000231304853659611
389,-0.021848201751709,0.000213149943308378
390,-0.0236358642578125,0.000187721287324837
391,-0.0247721672058105,0.00020971296049346
392,-0.025841236114502,0.000246114500056533
393,-0.0266480445861816,0.000212585963156312
394,-0.028292179107666,0.000188870858506382
395,-0.0291085243225098,0.000154774613389913
396,-0.0302338600158691,0.000188538300947296
397,-0.0304760932922363,0.00022018520516308
398,-0.031496524810791,0.000162346071596074
399,-0.0326547622680664,0.000165095871291298
400,-0.0334281921386719,0.00019156276315384
401,-0.0337629318237305,0.000162113413702971
402,-0.034294605255127,0.000165228031711081
403,-0.034480094909668,0.000159822272225409
404,-0.0349745750427246,0.000152894546402642
405,-0.0352749824523926,0.000157930309635044
406,-0.036015510559082,0.000201548186198701
407,-0.0365777015686035,0.000175543440451275
408,-0.0360345840454102,0.000180770972876459
409,-0.0367822647094727,0.000188321099192134
410,-0.0367445945739746,0.000162969519485004
411,-0.0369906425476074,0.000154521727940263
412,-0.0369458198547363,0.000134589769207066
413,-0.0368404388427734,0.000133142634915553
414,-0.0374612808227539,0.00011580763736621
415,-0.037318229675293,0.000161272502264337
416,-0.0371413230895996,0.000236926176252066
417,-0.0368986129760742,0.000175745384213096
418,-0.0373330116271973,0.000139728747088634
419,-0.0368390083312988,0.000152459686780508
420,-0.0367388725280762,0.000170697046725183
421,-0.0361795425415039,0.000199206106401778
422,-0.0364007949829102,0.000188716701783452
423,-0.0362715721130371,0.000185758523317949
424,-0.0363874435424805,0.000109521097850288
425,-0.0359773635864258,0.000100656698623343
426,-0.0358977317810059,0.000140092777007089
427,-0.0348401069641113,0.000151628218238288
428,-0.0349898338317871,0.000150945888545582
429,-0.0346198081970215,0.000177244932194521
430,-0.0335197448730469,0.00016864402989475
431,-0.0341472625732422,0.000141085793200458
432,-0.0340604782104492,0.000138035915623952
433,-0.0332098007202148,0.000153985182306357
434,-0.0325112342834473,0.000185689965085934
435,-0.0331478118896484,0.000151772106501172
436,-0.0318794250488281,0.000150614132310419
437,-0.0321602821350098,0.000147523892026764
438,-0.0317645072937012,0.000117441420088427
439,-0.0315146446228027,0.000139702708654289
440,-0.0314579010009766,0.000111018095151537
441,-0.0303316116333008,0.000146763629765989
442,-0.030609130859375,0.000117514967351909
443,-0.0304722785949707,0.000131928011081152
444,-0.0299859046936035,0.000114486605743207
445,-0.029759407043457,0.00013574373892714
446,-0.0295796394348145,0.000158508016000697
447,-0.0292539596557617,0.0001504933123549
448,-0.0293364524841309,0.000118049703802744
449,-0.0288524627685547,0.000106534428160217
450,-0.0289011001586914,0.000125573958842345
451,-0.0287151336669922,0.000157993644128046
452,-0.028374195098877,0.000144370669045101
453,-0.0284485816955566,0.000116607892266588
454,-0.028266429901123,0.000115550149153419
455,-0.0279436111450195,0.000112638586149385
456,-0.0278959274291992,0.000157872710774805
457,-0.0278458595275879,0.000128982468129705
458,-0.0277204513549805,0.0000889093538411983
459,-0.0278658866882324,0.000100740243347598
460,-0.0277614593505859,0.000124050999004433
461,-0.0270929336547852,0.0000947911014081261
462,-0.0279030799865723,0.000152426873127711
463,-0.0272421836853027,0.000117656126522739
464,-0.0267987251281738,0.000115479288466571
465,-0.0270266532897949,0.000138673559030865
466,-0.0267882347106934,0.000086015925263423
467,-0.0271859169006348,0.0000992096349281995
468,-0.0266938209533691,0.000110125642339971
469,-0.0270504951477051,0.0000943342509881603
470,-0.0269832611083984,0.0000852712305939062
471,-0.0267691612243652,0.000124709099107952
472,-0.0266761779785156,0.000145493948959278
473,-0.0264449119567871,0.000124007001486112
474,-0.0267863273620605,0.0000928082408686886
475,-0.0261993408203125,0.0000871269047329684
476,-0.0262689590454102,0.0000818966951605769
477,-0.0263071060180664,0.0000695218111019613
478,-0.0260953903198242,0.00008199380973894
479,-0.0263190269470215,0.0000865771366162083
480,-0.0258216857910156,0.000101073731689616
481,-0.0258426666259766,0.0000850416044934647
482,-0.0260205268859863,0.0000736030243339936
483,-0.0258359909057617,0.0000879244275788583
484,-0.0257554054260254,0.0000601051299165037
485,-0.0241045951843262,0.0000585617379071888
486,-0.0244994163513184,0.000061209994477647
487,-0.0262656211853027,0.0000480766793541128
488,-0.0255684852600098,0.0000608009449120142
489,-0.0250639915466309,0.0000786680157256676
490,-0.0250029563903809,0.0000941919360444137
491,-0.0250744819641113,0.0000904810287187818
492,-0.0248732566833496,0.0000690591256998073
493,-0.0246186256408691,0.0000757766111649458
494,-0.0248022079467773,0.0000724698361760793
495,-0.0244026184082031,0.0000796703428113201
496,-0.0241837501525879,0.0000651122841890415
497,-0.0241189002990723,0.0000803948014373399
498,-0.0240001678466797,0.0000918131343729337
499,-0.0235886573791504,0.0000997148475761385
500,-0.0237207412719727,0.0000791362947245633
501,-0.0231232643127441,0.0000784944065342283
502,-0.0231890678405762,0.0000750105924021283
503,-0.0230131149291992,0.0000663968989725336
504,-0.0228800773620605,0.0000524683406963564
505,-0.0226078033447266,0.0000719676660238568
506,-0.0222601890563965,0.000070758521276663
507,-0.0222020149230957,0.0000693351398635371
508,-0.0219559669494629,0.0000740956460748692
509,-0.0217418670654297,0.0000695806558693775
510,-0.0213451385498047,0.0000731226322811416
511,-0.021052360534668,0.000082455610137234
512,-0.0211272239685059,0.0000699148001118404
513,-0.0209269523620605,0.0000570702568233802
514,-0.0205941200256348,0.000058629644595126
515,-0.020355224609375,0.0000711143114232878
516,-0.0201749801635742,0.0000728203876581762
517,-0.0197896957397461,0.000083107942694661
518,-0.0195612907409668,0.0000837049568949366
519,-0.0193328857421875,0.0000819008595757748
520,-0.0192360877990723,0.0000634336813870902
521,-0.0190844535827637,0.0000730401844666657
522,-0.0187592506408691,0.0000907795764077168
523,-0.0186209678649902,0.0000643518201051655
524,-0.018458366394043,0.000053716716469013
525,-0.0181255340576172,0.0000928596751421689
526,-0.018002986907959,0.0000982724248748134
527,-0.0177297592163086,0.0000952314360845659
528,-0.0176148414611816,0.000114130552959284
529,-0.0170860290527344,0.0000969282222539666
530,-0.0171175003051758,0.000069120009175442
531,-0.017052173614502,0.0000675427673707038
532,-0.0167803764343262,0.0000740956460748692
533,-0.016477108001709,0.0000775018089091078
534,-0.0164690017700195,0.0000860859466098925
535,-0.0161833763122559,0.0000697503729987076
536,-0.016019344329834,0.00010111421606273
537,-0.015902042388916,0.000069864373544317
538,-0.0156631469726562,0.000055067982615912
539,-0.0156354904174805,0.0000557654889607998
540,-0.0153055191040039,0.0000541404445583561
541,-0.0153417587280273,0.000055992338081643
542,-0.0150418281555176,0.0000640063972125924
543,-0.0150036811828613,0.0000680859346336423
544,-0.014744758605957,0.0000517088071451536
545,-0.0147418975830078,0.000045863208255914
546,-0.0146002769470215,0.0000668371947453899
547,-0.0143008232116699,0.000099143148978691
548,-0.0142378807067871,0.000076656671387133
549,-0.0142226219177246,0.0000506660517087536
550,-0.0140762329101562,0.0000589400432665215
551,-0.0139217376708984,0.0000733337723806932
552,-0.0137677192687988,0.0000705380616385526
553,-0.0138530731201172,0.0000588763566210563
554,-0.0136375427246094,0.00006482530578055
555,-0.0135712623596191,0.0000542023547496048
556,-0.0133500099182129,0.0000780077026702314
557,-0.0134344100952148,0.0000624420033831438
558,-0.0131731033325195,0.0000675494997671691
559,-0.0131220817565918,0.0000572611743394172
560,-0.0130410194396973,0.0000668048688465127
561,-0.0129866600036621,0.0000583614398223657
562,-0.0129513740539551,0.0000679572418652161
563,-0.0128021240234375,0.0000673151541475482
564,-0.0127401351928711,0.0000497249940533674
565,-0.0127062797546387,0.0000538403843617945
566,-0.0126686096191406,0.0000696900402314953
567,-0.0124549865722656,0.0000667742298753178
568,-0.0123906135559082,0.000065378878276224
569,-0.0120754241943359,0.0000574702532575626
570,-0.0119295120239258,0.0000460129327351524
571,-0.0121021270751953,0.0000627670588318816
572,-0.0120277404785156,0.0000683625520666117
573,-0.0118832588195801,0.0000479914747158516
574,-0.0116195678710937,0.0000491281137927145
575,-0.0119524002075195,0.000051091716363086
576,-0.0115814208984375,0.0000433764586416727
577,-0.0115609169006348,0.000048256061764838
578,-0.0110149383544922,0.000050710908779699
579,-0.012141227722168,0.000056494639411157
580,-0.0111689567565918,0.0000513834907265632
581,-0.0113158226013184,0.000042772718361534
582,-0.0107698440551758,0.0000362262889520784
583,-0.0123147964477539,0.0000458557711798527
584,-0.0111703872680664,0.0000491547186147729
585,-0.0106620788574219,0.0000425094376060786
586,-0.0114884376525879,0.000052532221529786
587,-0.0110478401184082,0.0000573266553883859
588,-0.0110435485839844,0.0000673371059349073
589,-0.0114574432373047,0.0000603354475468929
590,-0.0110163688659668,0.0000368555333308022
591,-0.0112566947937012,0.0000550101467592478
592,-0.0108189582824707,0.0000575868479458595
593,-0.0104475021362305,0.0000451373661040283
594,-0.0110783576965332,0.0000512882642638913
595,-0.0108013153076172,0.0000585530013335847
596,-0.010866641998291,0.0000669306817056465
597,-0.0108232498168945,0.0000606380523469399
598,-0.0107250213623047,0.000042893483634088
599,-0.0103645324707031,0.0000378943062644209
600,-0.0108213424682617,0.0000486841164325722
601,-0.0105414390563965,0.0000420455743993483
602,-0.0106067657470703,0.0000528171148777838
603,-0.0103907585144043,0.000060056878153597
604,-0.0103898048400879,0.0000434026600687928
605,-0.0105395317077637,0.0000576805452984201
606,-0.0103034973144531,0.0000458198082951586
607,-0.0102910995483398,0.0000405605994614171
608,-0.0104255676269531,0.0000450251450886264
609,-0.0102920532226562,0.0000485192059776487
610,-0.0101141929626465,0.0000403279934664072
611,-0.0102729797363281,0.0000507030616570529
612,-0.0102033615112305,0.0000692021990415431
613,-0.0101346969604492,0.0000642156443387315
614,-0.0100712776184082,0.0000560227858016776
615,-0.0100727081298828,0.0000692924952959174
616,-0.0101413726806641,0.0000494832002890695
617,-0.0101461410522461,0.0000348833350979134
618,-0.0101261138916016,0.0000439221123046024
619,-0.0102667808532715,0.0000485683867951758
620,-0.00992536544799805,0.000037984202736467
621,-0.010185718536377,0.0000674939374129644
622,-0.00992155075073242,0.0000540774123522301
623,-0.00995445251464844,0.0000626764309021559
624,-0.00994682312011719,0.0000583877316116845
625,-0.00991725921630859,0.0000618676688781093
626,-0.00998497009277344,0.0000578448874821501
627,-0.00985050201416016,0.0000531935306597833
628,-0.00976419448852539,0.0000465801813856177
629,-0.009674072265625,0.0000553346871352526
630,-0.0094914436340332,0.0000423956236465363
631,-0.00968265533447266,0.0000344925029065261
632,-0.00972366333007813,0.000055071079251269
633,-0.00965547561645508,0.0000543970680479952
634,-0.00972652435302734,0.0000623982917898391
635,-0.00972175598144531,0.0000545150220111921
636,-0.00951910018920898,0.00003823701840519
637,-0.00963783264160156,0.0000393058173966386
638,-0.00952816009521484,0.0000507736421007531
639,-0.00953054428100586,0.0000478788199083756
640,-0.0095219612121582,0.0000522729676280106
641,-0.00943231582641602,0.000064245733946473
642,-0.00942897796630859,0.0000494958348355001
643,-0.00937414169311523,0.000044464905204179
644,-0.00932693481445313,0.0000469787460527602
645,-0.00944232940673828,0.0000572393306765484
646,-0.00940990447998047,0.0000698611189674842
647,-0.00926017761230469,0.000075968405472934
648,-0.00927972793579102,0.0000649146849872155
649,-0.00916051864624023,0.0000614583720616075
650,-0.00920486450195313,0.0000656132088137911
651,-0.00930881500244141,0.0000811296071525721
652,-0.00917387008666992,0.0000651873194751753
653,-0.00921392440795898,0.0000661051788314915
654,-0.00907087326049805,0.0000714253677338787
655,-0.00923442840576172,0.0000534547002544687
656,-0.00413417816162109,0.0000419758913476351
657,-0.0126738548278809,0.0000422902410446855
658,-0.0102524757385254,0.0000368015121669968
659,-0.00912046432495117,0.0000597589403061283
660,-0.00892448425292969,0.0000598919619297317
661,-0.00887727737426758,0.0000641376998037734
662,-0.00891399383544922,0.0000673911106400771
663,-0.0089106559753418,0.0000679053616291729
664,-0.00885295867919922,0.0000754654122683143
665,-0.00880146026611328,0.0000535354572125983
666,-0.00882673263549805,0.0000694465480051125
667,-0.00884628295898438,0.0000638124999785531
668,-0.0088810920715332,0.0000459993415569692
669,-0.00887537002563477,0.0000451449215287324
670,-0.00877046585083008,0.0000460240498047396
671,-0.00881576538085938,0.0000566634244547034
672,-0.00864505767822266,0.0000433725270624111
673,-0.00867176055908203,0.0000399882759815098
674,-0.00871992111206055,0.0000557226606673872
675,-0.00870561599731445,0.0000566985247625909
676,-0.00861787796020508,0.0000580401127542771
677,-0.00867652893066406,0.0000550194459079103
678,-0.00846242904663086,0.000050698577041649
679,-0.00849676132202148,0.000036783745039675
680,-0.00837612152099609,0.000039908592471559
681,-0.00847530364990234,0.0000545369145485232
682,-0.00830936431884766,0.0000458371732105415
683,-0.00832223892211914,0.0000362772495300488
684,-0.00830316543579102,0.0000447300196407594
685,-0.00815296173095703,0.0000482690175191789
686,-0.00819492340087891,0.000042849065674809
687,-0.00827407836914063,0.000045864447651346
688,-0.00810384750366211,0.0000410979968858587
689,-0.00805473327636719,0.0000429808593394478
690,-0.00808906555175781,0.0000473031113145515
691,-0.00802278518676758,0.0000429861491286238
692,-0.00804042816162109,0.0000465789610347775
693,-0.00801897048950195,0.0000458817956720436
694,-0.00807714462280273,0.000049840319062154
695,-0.00802230834960938,0.0000378199808143065
696,-0.00795984268188477,0.0000334288015248023
697,-0.00795555114746094,0.0000442573217344399
698,-0.00803089141845703,0.0000384770950596552
699,-0.00803899765014648,0.0000571588343341937
700,-0.00801897048950195,0.0000395314972056629
701,-0.00803089141845703,0.0000507568461353692
702,-0.00803709030151367,0.0000348442044456176
703,-0.00792741775512695,0.0000402193134019219
704,-0.00809001922607422,0.0000488670853063956
705,-0.00804281234741211,0.0000409982913755451
706,-0.00807905197143555,0.0000446422475381776
707,-0.00796604156494141,0.0000312401129706858
708,-0.00803995132446289,0.0000419338903806825
709,-0.00810956954956055,0.0000452769373720902
710,-0.00810718536376953,0.0000334942041947097
711,-0.00804662704467773,0.000039908592471559
712,-0.00799942016601563,0.0000576549169467994
713,-0.00797605514526367,0.0000618786933803876
714,-0.0079188346862793,0.0000576559028632807
715,-0.00792026519775391,0.0000503633501308936
716,-0.00792741775512695,0.0000525787298522562
717,-0.00785589218139648,0.0000501405098635407
718,-0.0077824592590332,0.0000350629357459063
719,-0.00770139694213867,0.0000264955887447511
720,-0.00769186019897461,0.0000390941044520852
721,-0.00763034820556641,0.0000533280062031783
722,-0.00759458541870117,0.0000484981132171398
723,-0.00755500793457031,0.0000419176206434291
724,-0.00750064849853516,0.0000436351596555075
725,-0.0074162483215332,0.0000458049188423298
726,-0.00732660293579102,0.000040199521822951
727,-0.00741291046142578,0.0000438586513045003
728,-0.00735378265380859,0.0000304443815216356
729,-0.00731658935546875,0.0000371321150473247
730,-0.00724458694458008,0.0000489217263362145
731,-0.00722026824951172,0.0000569156635210355
732,-0.00722837448120117,0.0000434589396450167
733,-0.00723695755004883,0.0000314730585909352
734,-0.00726461410522461,0.0000386929188089495
735,-0.00720310211181641,0.0000464848978118136
736,-0.00733089447021484,0.0000386216021719253
737,-0.00725030899047852,0.0000332822430635401
738,-0.00731611251831055,0.000030442981146836
739,-0.0073237419128418,0.0000431359765507829
740,-0.00726795196533203,0.0000543918429365067
741,-0.00741720199584961,0.0000402828633319367
742,-0.00743579864501953,0.0000383045993013264
743,-0.00730466842651367,0.0000375068117808922
744,-0.00743341445922852,0.0000451386254293017
745,-0.00735998153686523,0.0000389491612561457
746,-0.00734996795654297,0.0000525419592363475
747,-0.00729608535766602,0.0000505042363680729
748,-0.00734996795654297,0.0000402242597750914
749,-0.00730705261230469,0.0000448150831215348
750,-0.00717306137084961,0.0000317338621749398
751,-0.00716352462768555,0.0000330637661425776
752,-0.00722980499267578,0.0000412002205579224
753,-0.00714492797851563,0.0000435973650564767
754,-0.00712060928344727,0.000052916035500436
755,-0.00716209411621094,0.0000494728605329091
756,-0.0070195198059082,0.0000375968788174193
757,-0.00694417953491211,0.0000404483285396539
758,-0.00692176818847656,0.0000398572832353511
759,-0.00699520111083984,0.0000430429733049463
760,-0.00692367553710938,0.0000457627057511888
761,-0.00684452056884766,0.0000463698087318562
762,-0.00688362121582031,0.0000281606558255864
763,-0.00676918029785156,0.0000386723460657336
764,-0.00676488876342773,0.0000458160863855908
765,-0.00670194625854492,0.0000410322461393265
766,-0.00679349899291992,0.0000383008891612306
767,-0.00682163238525391,0.0000532554742786237
768,-0.00677728652954102,0.0000465240121161304
769,-0.00658559799194336,0.0000461794077699365
770,-0.00670337677001953,0.00005866163048361
771,-0.00672101974487305,0.0000418137522511522
772,-0.00678920745849609,0.0000428994467218112
773,-0.00676774978637695,0.0000414779810892625
774,-0.00683164596557617,0.0000319329624517368
775,-0.00681686401367188,0.0000313771894004099
776,-0.00682926177978516,0.0000266229335306126
777,-0.00680351257324219,0.0000377342125801557
778,-0.00679445266723633,0.0000391449619010008
779,-0.00681209564208984,0.0000492713784331978
780,-0.00677156448364258,0.0000541992084802798
781,-0.00677204132080078,0.000058737164251757
782,-0.0068364143371582,0.0000436012763618322
783,-0.00685024261474609,0.0000478003981628714
784,-0.00686740875244141,0.0000293312997403512
785,-0.00697231292724609,0.0000381953707281738
786,-0.00682830810546875,0.0000307190103438941
787,-0.00683069229125977,0.0000377929171368859
788,-0.00679922103881836,0.0000475607717572686
789,-0.00672483444213867,0.0000549491466999116
790,-0.00688982009887695,0.0000531785679416548
791,-0.00687456130981445,0.0000479417020788573
792,-0.0068058967590332,0.0000628050835648611
793,-0.00682878494262695,0.0000437275533690128
794,-0.00673866271972656,0.0000356042846300116
795,-0.0066370964050293,0.0000339501694287467
796,-0.00668430328369141,0.0000323591195621102
797,-0.00676393508911133,0.0000305734064138612
798,-0.00660943984985352,0.0000473595568117963
799,-0.00666427612304688,0.0000293559985631434
800,-0.00657939910888672,0.0000300577660409699
801,-0.00662946701049805,0.0000434026600687928
802,-0.0065617561340332,0.0000411097517159941
803,-0.00658321380615234,0.0000377944211829371
804,-0.00648880004882813,0.0000454198344041064
805,-0.00651884078979492,0.0000505132397082582
806,-0.0065760612487793,0.0000601788518968423
807,-0.00643396377563477,0.0000559506994013696
808,-0.00653934478759766,0.0000411753786982277
809,-0.00650691986083984,0.0000323090164498995
810,-0.00649499893188477,0.0000384327495646369
811,-0.00637960433959961,0.0000463097020804557
812,-0.00643301010131836,0.0000511061778048056
813,-0.00647878646850586,0.0000480033177372089
814,-0.00644683837890625,0.000053802362978477
815,-0.00653648376464844,0.0000447274779457469
816,-0.00657558441162109,0.0000491038098444281
817,-0.00645017623901367,0.0000480660370342582
818,-0.00651216506958008,0.0000579106900835239
819,-0.00655126571655273,0.0000458892285304241
820,-0.00645828247070313,0.0000630201236825741
821,-0.00643777847290039,0.0000373633178907145
822,-0.00647735595703125,0.0000257188344132037
823,-0.00653362274169922,0.0000339074474102475
824,-0.00646162033081055,0.0000459647276965557
825,-0.00644636154174805,0.0000317249046389342
826,-0.00643396377563477,0.0000414025378348541
827,-0.00647878646850586,0.000041497162926751
828,-0.00638961791992188,0.0000448733915558571
829,-0.00637960433959961,0.0000421778571844024
830,-0.00627374649047852,0.0000404855527670229
831,-0.00634670257568359,0.0000384763563868889
832,-0.00637483596801758,0.0000490991791569561
833,-0.00630855560302734,0.0000514398789653573
834,-0.00622177124023438,0.0000342410916505743
835,-0.00621652603149414,0.0000398537176410018
836,-0.0061182975769043,0.0000596122736817031
837,-0.00615024566650391,0.0000465716382582038
838,-0.00615596771240234,0.0000433672844022853
839,-0.00606536865234375,0.0000479654097759244
840,-0.00603008270263672,0.0000431155462334064
841,-0.0059661865234375,0.0000518087467384355
842,-0.00597476959228516,0.0000410038369310115
843,-0.00593423843383789,0.0000487167981734889
844,-0.00588464736938477,0.000036888678535682
845,-0.00580930709838867,0.0000499246455191092
846,-0.005889892578125,0.0000505750942846243
847,-0.00580596923828125,0.0000613509887718793
848,-0.00587940216064453,0.0000497786933836189
849,-0.00571250915527344,0.0000410038369310115
850,-0.00573825836181641,0.0000297187587316463
851,-0.00570583343505859,0.0000333249137175718
852,-0.00575017929077148,0.0000595321214062934
853,-0.00564002990722656,0.0000702311693010307
854,-0.00571775436401367,0.0000450503876454608
855,-0.00565958023071289,0.0000499940509191817
856,-0.00571155548095703,0.0000528386351145395
857,-0.00567913055419922,0.0000441351365413337
858,-0.00576066970825195,0.0000465740793116561
859,-0.00566720962524414,0.000061154249351049
860,-0.00580883026123047,0.0000560937662099914
861,-0.00574493408203125,0.0000371665430425873
862,-0.00578832626342773,0.0000500667662718885
863,-0.00585174560546875,0.0000491454663971737
864,-0.00581645965576172,0.0000381797411367149
865,-0.00578117370605469,0.0000306040685623584
866,-0.0057988166809082,0.0000434994681236286
867,-0.00574684143066406,0.0000467762426749971
868,-0.00579309463500977,0.0000502356489332469
869,-0.00585365295410156,0.0000547667767867472
870,-0.00570249557495117,0.0000398765319356165
871,-0.00583267211914063,0.0000403061398677905
872,-0.00585651397705078,0.0000345501345305191
873,-0.00586366653442383,0.0000469642240289039
874,-0.00585317611694336,0.0000669001003543685
875,-0.0057682991027832,0.0000521543025965009
876,-0.00576448440551758,0.0000493324855962745
877,-0.00571537017822266,0.0000523685744159467
878,-0.00567102432250977,0.0000439518685218922
879,-0.00575399398803711,0.0000654153848252965
880,-0.00568771362304688,0.0000711542664293186
881,-0.0057225227355957,0.0000546680856627141
882,-0.00565004348754883,0.0000584850056555547
883,-0.005584716796875,0.0000495187984791386
884,-0.00553226470947266,0.0000458941831005671
885,-0.0055232048034668,0.0000506963345851806
886,-0.00554323196411133,0.0000699066692548099
887,-0.00555515289306641,0.0000713393648517133
888,-0.00549554824829102,0.0000577573621217709
889,-0.00547695159912109,0.0000697128749867888
890,-0.00538253784179688,0.0000486701032541291
891,-0.00533628463745117,0.0000707054807067341
892,-0.00521183013916016,0.0000710103231953253
893,-0.005126953125,0.0000477528071532991
894,-0.00520658493041992,0.0000469981017711703
895,-0.00516414642333984,0.0000439091685291453
896,-0.00509119033813477,0.0000515921499026373
897,-0.00509166717529297,0.0000704784031724105
898,-0.00510549545288086,0.0000506121707452215
899,-0.0050654411315918,0.0000501030843734296
900,-0.00504255294799805,0.0000556195338100104
