Wavelength (nm),Absorbance (AU),Std.Dev.
200,0.927838802337647,0.250799807043169
201,0.975857734680176,0.184391964923951
202,1.23564291000366,0.141041456905117
203,1.97515964508057,0.170984911158119
204,2.41049718856812,0.292877589984013
205,2.82280397415161,0.17686838306141
206,2.44008731842041,0.586354018623775
207,3.67867755889893,1.24956046960021
208,3.21329069137573,0.611137774877983
209,2.78402185440063,0.354404743433223
210,3.20964384078979,0.190271869700737
211,2.91342926025391,0.559985155181312
212,3.15443229675293,1.18379355780474
213,3.99999952316284,0.763549482679414
214,3.86798477172852,0.31237179987544
215,3.07815313339233,0.555512151082224
216,3.22448492050171,1.20061121315614
217,3.99999952316284,0.884625489040065
218,3.73051166534424,0.383648640420991
219,3.16045188903809,0.193842121496867
220,3.42653560638428,0.29080581782633
221,3.25561809539795,0.344636640626762
222,3.44756841659546,0.280346585075816
223,3.05764150619507,0.231875506706404
224,3.14352083206177,0.366105453558124
225,3.4395580291748,0.351160794805732
226,3.35856008529663,0.92084820995713
227,3.9787859916687,1.60447524764719
228,3.58153295516968,0.957102994759772
229,3.57764387130737,1.3730010327518
230,3.99999952316284,1.03402798182037
231,3.57346820831299,0.726877451898272
232,3.97517108917236,0.712009836879028
233,3.28897333145142,0.313694008014279
234,2.75167894363403,0.044527394981164
235,2.69287395477295,0.0302749141209941
236,2.51826477050781,0.0301298613048847
237,2.45575618743897,0.0211847391495931
238,2.25101184844971,0.0119110854134551
239,2.14598846435547,0.00774509438489829
240,2.08955478668213,0.00828303515788585
241,2.02417325973511,0.0073649229046036
242,1.97183036804199,0.00928497001002188
243,1.91314029693604,0.00839538518752412
244,1.90826749801636,0.00846476423774558
245,1.86773920059204,0.00575529483943039
246,1.87763833999634,0.0067517684633197
247,1.85111522674561,0.00842108224170273
248,1.86512041091919,0.00695613367372435
249,1.8520884513855,0.0104557337905411
250,1.87151718139648,0.00806311145208581
251,1.84968614578247,0.00804530415433598
252,1.85552549362183,0.00782584005118389
253,1.85488319396973,0.00657439584204544
254,1.88905096054077,0.00504020692708012
255,1.85836887359619,0.00793668278669952
256,1.87952089309692,0.00870088210731205
257,1.87692880630493,0.00657595390681427
258,1.83068180084229,0.00573129542134132
259,1.85272073745728,0.00835334738775361
260,1.82531595230103,0.00934037330622709
261,1.81322574615479,0.00847202267350989
262,1.77737188339233,0.010363942067358
263,1.77268648147583,0.00907742783566353
264,1.744460105896,0.00585444560919297
265,1.7103123664856,0.00420002153396763
266,1.68760919570923,0.00350148483268534
267,1.64738845825195,0.00539393337287249
268,1.62536001205444,0.00270115047344299
269,1.58561420440674,0.00362086916970904
270,1.60336971282959,0.00693427606368517
271,1.58280992507935,0.0040898109296267
272,1.57446193695068,0.00556943710532251
273,1.55192899703979,0.00543769808112466
274,1.53911638259888,0.00623813934260314
275,1.52285385131836,0.00591379956727994
276,1.49405002593994,0.00290510674006403
277,1.48933029174805,0.00237895238609238
278,1.46470594406128,0.00272919129434544
279,1.44873428344727,0.00242124818565978
280,1.43986129760742,0.00376487236494948
281,1.41397523880005,0.00321269083996205
282,1.36870718002319,0.00254103510597731
283,1.3374457359314,0.00211349376590031
284,1.27602195739746,0.00232279669910888
285,1.21945524215698,0.00187484512086798
286,1.16051340103149,0.00114374777436691
287,1.10692024230957,0.00144942433320573
288,1.05316257476807,0.00180956629399092
289,1.01413583755493,0.00161465820913102
290,0.978288650512695,0.00107189599251557
291,0.948740959167481,0.00068868757287914
292,0.924204826354981,0.000994458726604484
293,0.901655197143555,0.00145066873291786
294,0.888718605041504,0.00126076754567405
295,0.874506950378418,0.000675212191910612
296,0.862185001373291,0.000616235977365377
297,0.850069046020508,0.00078297067936203
298,0.839980125427246,0.000798648576214706
299,0.831864356994629,0.00120169624265128
300,0.821807384490967,0.00134491749296602
301,0.813695430755615,0.000978557218402405
302,0.801064491271973,0.000837758241656943
303,0.792261123657227,0.000888505149753732
304,0.780694961547852,0.000968181889600544
305,0.769898414611816,0.000865995094217695
306,0.755447387695313,0.000514164024367459
307,0.741644382476807,0.000823833312176092
308,0.730557441711426,0.00123916023778092
309,0.712626934051514,0.000859839871774045
310,0.697432994842529,0.000647027085371923
311,0.683788776397705,0.000552802152488306
312,0.66386890411377,0.000706120969370519
313,0.648690223693848,0.000607280155803317
314,0.631818294525147,0.000508371925322195
315,0.612219333648682,0.000619861895658862
316,0.593708038330078,0.000536165166097526
317,0.574719905853272,0.000500307399348779
318,0.556374073028564,0.000595117226122713
319,0.535793304443359,0.000606632824870341
320,0.517388343811035,0.000508085599236219
321,0.498523235321045,0.000457970254696144
322,0.478461742401123,0.000469695977010295
323,0.458932399749756,0.0004015319971966
324,0.439142227172852,0.000579896722712182
325,0.420468807220459,0.000472090942171159
326,0.401525020599365,0.000447605595210957
327,0.38388729095459,0.000421338450451014
328,0.365259647369385,0.000290443544563901
329,0.347831249237061,0.000306234906059401
330,0.330644130706787,0.000444137914254263
331,0.313279151916504,0.000303028419574471
332,0.296674251556396,0.000348476301318643
333,0.280894756317139,0.000372582870407384
334,0.266391754150391,0.000279821760885452
335,0.250672817230225,0.000232579248607107
336,0.23654317855835,0.000237558721677421
337,0.222919940948486,0.000342240216329298
338,0.20961856842041,0.000295768217351573
339,0.197085380554199,0.000221363401541722
340,0.184006690979004,0.000195779837346746
341,0.172428607940674,0.000203899048078808
342,0.160669803619385,0.000231599567209786
343,0.149800777435303,0.000181338607134008
344,0.13931941986084,0.000205542812783021
345,0.128957271575928,0.000251408519733146
346,0.119676113128662,0.000226055013909919
347,0.109706401824951,0.000187726132182756
348,0.10087251663208,0.000183259382727508
349,0.0926337242126465,0.000194353116656341
350,0.0837392807006836,0.00027000269871857
351,0.0757231712341309,0.000201742132199346
352,0.0679306983947754,0.000202151962493717
353,0.0609622001647949,0.000200738816019103
354,0.0533876419067383,0.0001752790090852
355,0.0468840599060059,0.000176138250436633
356,0.0395469665527344,0.000268665475101485
357,0.0327210426330566,0.00019251942262185
358,0.0269880294799805,0.000179300916668793
359,0.0208592414855957,0.000301288644317293
360,0.0165920257568359,0.000304495530143776
361,0.0121335983276367,0.000323963038950107
362,0.00814104080200195,0.00033449914228726
363,0.00415277481079102,0.000295762067237366
364,0.000772476196289063,0.000281054147520335
365,-0.00298547744750977,0.000281054147520335
366,-0.00696897506713867,0.000333196937645018
367,-0.00998020172119141,0.000246350892955361
368,-0.0130281448364258,0.000182049407943573
369,-0.0164427757263184,0.00021043164695435
370,-0.0194087028503418,0.000175854027106811
371,-0.0220708847045898,0.000230477650872595
372,-0.0244455337524414,0.000200738816019103
373,-0.0271224975585937,0.000130987089245262
374,-0.0297698974609375,0.000150178725572449
375,-0.0316343307495117,0.00018083133718342
376,-0.0337743759155273,0.000229056609500526
377,-0.0362997055053711,0.00019586808190766
378,-0.0379400253295898,0.000146614826250291
379,-0.0394630432128906,0.000161509187173824
380,-0.0409922599792481,0.00017498819279966
381,-0.0429863929748535,0.000164963604991367
382,-0.0443410873413086,0.000181674331503764
383,-0.0457630157470703,0.000154533499230593
384,-0.0467433929443359,0.000151081397036151
385,-0.0478630065917969,0.000217496295206639
386,-0.0487794876098633,0.000182762420692309
387,-0.0492758750915527,0.000205945079869558
388,-0.0503125190734863,0.000168279609681036
389,-0.0510735511779785,0.00020484249451956
390,-0.051506519317627,0.000174394675455665
391,-0.0518150329589844,0.000166347155976414
392,-0.0523543357849121,0.00021203764073259
393,-0.0521731376647949,0.000191700398851533
394,-0.0533695220947266,0.000168961916401154
395,-0.0529851913452148,0.000159157929220569
396,-0.0535016059875488,0.000200874692131333
397,-0.0531554222106934,0.000217684388396993
398,-0.0535039901733398,0.00019186637941276
399,-0.05389404296875,0.00014730178240672
400,-0.0540108680725098,0.000181544124120962
401,-0.0535893440246582,0.000154918514679118
402,-0.053987979888916,0.000144628726904704
403,-0.0538907051086426,0.000169968202047075
404,-0.0536093711853027,0.000180524275802252
405,-0.0532388687133789,0.000175605601728171
406,-0.0533642768859863,0.000183908371124132
407,-0.0534129142761231,0.00017695220708609
408,-0.052762508392334,0.000237317403307441
409,-0.0525617599487305,0.000228304930648916
410,-0.0521335601806641,0.000171298066431878
411,-0.0522627830505371,0.000143190951378811
412,-0.0512881278991699,0.000166737620361438
413,-0.0512351989746094,0.0001791232929832
414,-0.0511775016784668,0.000123182829990139
415,-0.0507063865661621,0.000127357483138677
416,-0.0501360893249512,0.000189313359850973
417,-0.0497884750366211,0.000208372927854459
418,-0.0497655868530273,0.000194899860734296
419,-0.0490236282348633,0.000178064045481416
420,-0.0485029220581055,0.000155764534343336
421,-0.0473008155822754,0.0001795036999463
422,-0.0471262931823731,0.000182124330537297
423,-0.0469145774841309,0.000184594497471145
424,-0.046720027923584,0.000121855920038772
425,-0.0458197593688965,0.0000842694169402104
426,-0.0458030700683594,0.000144949084528521
427,-0.044365406036377,0.000225821540000966
428,-0.0442328453063965,0.000158091474800889
429,-0.0435247421264648,0.000194404585433246
430,-0.0423502922058106,0.000170694382643359
431,-0.0423316955566406,0.000158542439343219
432,-0.042027473449707,0.000124745558427283
433,-0.0411171913146973,0.000122983319561979
434,-0.0400986671447754,0.000121751383552082
435,-0.0407891273498535,0.000138029326640172
436,-0.0392651557922363,0.000163746185613491
437,-0.0390925407409668,0.000139415964909293
438,-0.0386104583740234,0.000106153847574954
439,-0.0382466316223145,0.0000927494239158349
440,-0.0379848480224609,0.000100568562836832
441,-0.036592960357666,0.000146245264562283
442,-0.0367932319641113,0.000113855294055084
443,-0.0363154411315918,0.000114815813174178
444,-0.0358786582946777,0.000131917669869215
445,-0.0355415344238281,0.000120195127148783
446,-0.0351324081420898,0.000157471816665202
447,-0.0346894264221191,0.000154103264592263
448,-0.0345544815063477,0.000133773008309166
449,-0.0339903831481934,0.00013135803546809
450,-0.0340266227722168,0.000128087372231933
451,-0.0337328910827637,0.000145597055289327
452,-0.0333199501037598,0.000164076333371022
453,-0.033327579498291,0.000104695893643291
454,-0.0331382751464844,0.000104702408701137
455,-0.0327634811401367,0.000126115991629155
456,-0.03253173828125,0.000136268680650023
457,-0.0324068069458008,0.000116561085283361
458,-0.0321493148803711,0.0000997969024156785
459,-0.0322303771972656,0.00010395706226042
460,-0.0320653915405273,0.0000977620840284249
461,-0.0316715240478516,0.000112812053265192
462,-0.0319828987121582,0.000145518951141695
463,-0.0316247940063477,0.000138502932278687
464,-0.0311737060546875,0.000111441240807474
465,-0.031104564666748,0.0000861031129605778
466,-0.0309128761291504,0.000116742357805842
467,-0.031125545501709,0.00010393956328083
468,-0.0307168960571289,0.000122598162471953
469,-0.030886173248291,0.000107982298660845
470,-0.0308365821838379,0.000110294815760143
471,-0.0307521820068359,0.000134424107714444
472,-0.0304961204528809,0.000138965107141126
473,-0.0302915573120117,0.000100376203884389
474,-0.030489444732666,0.000107304253990442
475,-0.0299859046936035,0.000113873266004482
476,-0.0299649238586426,0.0000958074907178101
477,-0.0299053192138672,0.0000943149666314426
478,-0.0296077728271484,0.0000896352396965727
479,-0.0299072265625,0.000109321613273164
480,-0.0294599533081055,0.000104230102238641
481,-0.0292630195617676,0.0000700626168448192
482,-0.029477596282959,0.0000774519184992779
483,-0.0292959213256836,0.000108131696953265
484,-0.0292973518371582,0.000106183830303295
485,-0.0276484489440918,0.0000693957811821991
486,-0.0277628898620605,0.0000656097433579135
487,-0.029322624206543,0.0000511573162348417
488,-0.0287532806396484,0.0000589217162881625
489,-0.0282573699951172,0.0000615360153961206
490,-0.0283093452453613,0.000100740243347598
491,-0.0282101631164551,0.000137382073252633
492,-0.0280380249023437,0.0000676621678270027
493,-0.0277462005615234,0.0000809317828080735
494,-0.027747631072998,0.0000826387823115604
495,-0.0275077819824219,0.0000889221397471622
496,-0.0271248817443848,0.000064378314330054
497,-0.0269274711608887,0.0000845024868113046
498,-0.0268945693969727,0.000107316967011515
499,-0.0265254974365234,0.000108858905087045
500,-0.0263638496398926,0.000109794797347822
501,-0.0258603096008301,0.0000915278957369306
502,-0.0258893966674805,0.0000686380547159065
503,-0.0255603790283203,0.0000620914490152665
504,-0.0254240036010742,0.0000737835205932687
505,-0.0250277519226074,0.0000667043885718819
506,-0.0247511863708496,0.0000757721101634173
507,-0.0247397422790527,0.0000851217769748111
508,-0.0242214202880859,0.0000780616070925946
509,-0.0241971015930176,0.0000849707225462064
510,-0.0237560272216797,0.0000791535319921876
511,-0.0234112739562988,0.0000941750369489639
512,-0.0232148170471191,0.0000919368751422774
513,-0.0229101181030273,0.0000813255523884882
514,-0.0226297378540039,0.0000812682173460176
515,-0.0223202705383301,0.0000787792134463338
516,-0.0219316482543945,0.0000800319713441813
517,-0.0216264724731445,0.0000875200798578909
518,-0.0215573310852051,0.000087512285630527
519,-0.0210838317871094,0.000094435429253191
520,-0.020988941192627,0.0000641022391388171
521,-0.0208220481872559,0.000076029737279523
522,-0.0204687118530273,0.0000788744010043961
523,-0.0201606750488281,0.0000609606049136997
524,-0.0199942588806152,0.0000724086291960115
525,-0.0196614265441895,0.00010117940681362
526,-0.0193643569946289,0.000110024426745145
527,-0.0190644264221191,0.0000965592301917594
528,-0.0189719200134277,0.000102839968589875
529,-0.018460750579834,0.0000706877916725404
530,-0.0183043479919434,0.000064633865263641
531,-0.0181741714477539,0.0000707392383981808
532,-0.0180506706237793,0.0000790888728674478
533,-0.0175843238830566,0.0000783595948518398
534,-0.0175390243530273,0.0000763550156311942
535,-0.0171751976013184,0.0000596732698208876
536,-0.0170726776123047,0.0000862772240319572
537,-0.016838550567627,0.0000578596259095099
538,-0.0165095329284668,0.0000504310246442631
539,-0.0163817405700684,0.0000612137090144394
540,-0.0162062644958496,0.0000620676419967335
541,-0.0160455703735352,0.0000609214289413822
542,-0.0158038139343262,0.0000681810442457204
543,-0.0157904624938965,0.0000603439260590771
544,-0.0155119895935059,0.0000616043343996426
545,-0.0153617858886719,0.000069839960521239
546,-0.0152182579040527,0.0000668882038306941
547,-0.0149307250976562,0.0000719139363959192
548,-0.0148582458496094,0.0000657983446153061
549,-0.0148062705993652,0.0000423332312306147
550,-0.0146498680114746,0.0000609083646844321
551,-0.0144271850585937,0.0000644136230116588
552,-0.0142912864685059,0.0000613380160060558
553,-0.0142207145690918,0.0000620383285092981
554,-0.0139541625976562,0.0000600710738718879
555,-0.0139608383178711,0.0000591335755272879
556,-0.0137214660644531,0.000075186197662002
557,-0.0137591361999512,0.0000646707923726222
558,-0.0134787559509277,0.000064558186706834
559,-0.0134696960449219,0.000055276101984548
560,-0.0133199691772461,0.0000721333431142833
561,-0.0132193565368652,0.0000683359389066478
562,-0.0131754875183105,0.0000779756337263601
563,-0.0130023956298828,0.000056520793872498
564,-0.0129289627075195,0.0000544398950454977
565,-0.0128116607666016,0.0000825052307155097
566,-0.0128865242004395,0.000081956364891743
567,-0.0126490592956543,0.0000785537661595793
568,-0.0124683380126953,0.0000697047205757718
569,-0.0122194290161133,0.0000616522970568373
570,-0.0121264457702637,0.0000511628716799615
571,-0.0121526718139648,0.0000696231239371968
572,-0.0120391845703125,0.0000697813344189709
573,-0.0118913650512695,0.0000546888775417843
574,-0.0116057395935059,0.0000672086708420517
575,-0.0119023323059082,0.000054938800994117
576,-0.0116138458251953,0.0000456370777664391
577,-0.0115056037902832,0.0000399427620122382
578,-0.0110511779785156,0.0000649934469187807
579,-0.0120315551757812,0.0000609960281598532
580,-0.0109944343566895,0.0000566363322110056
581,-0.0112309455871582,0.0000526640683299016
582,-0.0105981826782227,0.0000457738835932607
583,-0.0121641159057617,0.0000412663924063164
584,-0.0111041069030762,0.0000522805791140754
585,-0.0105447769165039,0.0000593312669948327
586,-0.0113558769226074,0.0000689817097474103
587,-0.0108046531677246,0.0000739082213210967
588,-0.0109786987304687,0.0000710775329810565
589,-0.0112800598144531,0.0000636215857256043
590,-0.0108656883239746,0.0000587806972741508
591,-0.0110588073730469,0.0000450806600562992
592,-0.0106539726257324,0.0000518887789195413
593,-0.0103311538696289,0.0000448442468155913
594,-0.0109820365905762,0.0000559354579934463
595,-0.0105514526367187,0.0000658052554802149
596,-0.0106658935546875,0.000074127859907302
597,-0.0106549263000488,0.0000788152828651214
598,-0.0105695724487305,0.0000836288639343999
599,-0.0101447105407715,0.0000667674193056764
600,-0.0106182098388672,0.0000601240416059518
601,-0.0102949142456055,0.0000603439260590771
602,-0.0103020668029785,0.0000618088383226637
603,-0.0101666450500488,0.0000529009942945811
604,-0.0102243423461914,0.0000430145706001966
605,-0.01025390625,0.0000404448150515919
606,-0.0100870132446289,0.000046114122561129
607,-0.010077953338623,0.0000479630395335502
608,-0.0100698471069336,0.0000403730731532004
609,-0.0100078582763672,0.0000453283820375575
610,-0.009796142578125,0.0000643306168689704
611,-0.0100226402282715,0.0000505379906234293
612,-0.00987768173217773,0.0000554332169080738
613,-0.00979423522949219,0.0000551298822749485
614,-0.00979804992675781,0.0000528332558771352
615,-0.00974798202514648,0.0000672593982029169
616,-0.00984096527099609,0.0000590970359223544
617,-0.00982904434204102,0.0000428145602736188
618,-0.00976419448852539,0.0000526457160347856
619,-0.0098876953125,0.0000553850002744845
620,-0.00956010818481445,0.000061609870457982
621,-0.00992870330810547,0.0000685153771295245
622,-0.00959062576293945,0.0000617407456126486
623,-0.00970220565795898,0.0000691644038335484
624,-0.00954532623291016,0.0000511550938878638
625,-0.0094609260559082,0.0000587845653159589
626,-0.00960493087768555,0.0000724447318759665
627,-0.00941038131713867,0.0000641589667951743
628,-0.00945711135864258,0.000071533520574972
629,-0.00940084457397461,0.0000555141675336807
630,-0.00932884216308594,0.0000485039732373661
631,-0.00931549072265625,0.0000500485973381909
632,-0.00925922393798828,0.0000623217227290877
633,-0.00921869277954102,0.0000445976594222126
634,-0.00926685333251953,0.0000617260129880607
635,-0.00917339324951172,0.000045342174334252
636,-0.00906515121459961,0.0000424311395743547
637,-0.00916576385498047,0.0000596141807557373
638,-0.00901556015014648,0.0000501518454072533
639,-0.00908184051513672,0.0000372726864735848
640,-0.00905609130859375,0.000064586356528926
641,-0.00897979736328125,0.0000708259700083845
642,-0.00899982452392578,0.0000639601998791016
643,-0.008941650390625,0.0000568796978532916
644,-0.00885772705078125,0.0000521641108509182
645,-0.00891828536987305,0.0000504873507777577
646,-0.00886249542236328,0.0000572810249863213
647,-0.00883626937866211,0.0000854097747874634
648,-0.00873851776123047,0.0000716827572805455
649,-0.00863361358642578,0.0000724164791357789
650,-0.00870037078857422,0.0000789824294350365
651,-0.0087122917175293,0.000070250591638045
652,-0.00866317749023438,0.0000671748313198209
653,-0.00865554809570313,0.0000592104273051563
654,-0.00849723815917969,0.0000843152734467967
655,-0.00863933563232422,0.0000631300703561225
656,-0.00345182418823242,0.0000467567951145785
657,-0.011873722076416,0.0000416543937335223
658,-0.00960683822631836,0.0000483678379363334
659,-0.00846433639526367,0.0000590672105557616
660,-0.00835418701171875,0.0000661893947580743
661,-0.00833606719970703,0.000062765247555709
662,-0.00821161270141602,0.0000541362446945255
663,-0.00825929641723633,0.0000593121025293969
664,-0.00828361511230469,0.0000721286147642986
665,-0.0082240104675293,0.0000660174114222595
666,-0.00819921493530273,0.0000770619598454798
667,-0.0081934928894043,0.0000660690534301739
668,-0.00824737548828125,0.000047327138903501
669,-0.00811529159545898,0.0000386613204500952
670,-0.00811624526977539,0.0000518317823559976
671,-0.0081329345703125,0.0000692563909215242
672,-0.00799036026000977,0.0000458371732105415
673,-0.00806617736816406,0.0000418164710490517
674,-0.00804996490478516,0.0000456731845326547
675,-0.00807952880859375,0.0000460265198999945
676,-0.00795173645019531,0.0000465459994678473
677,-0.00809431076049805,0.0000550937825923164
678,-0.00780200958251953,0.0000484336062001151
679,-0.00781488418579102,0.0000453271279842993
680,-0.00773715972900391,0.0000632524085952394
681,-0.00777864456176758,0.0000663318022784093
682,-0.00763368606567383,0.0000395688656534667
683,-0.00768327713012695,0.0000354234169914809
684,-0.00757789611816406,0.000045627112250922
685,-0.00743627548217773,0.0000660329082653101
686,-0.00747871398925781,0.0000505649778043968
687,-0.00745344161987305,0.0000310768352063901
688,-0.00738525390625,0.0000347821575468598
689,-0.00737428665161133,0.0000504896025160805
690,-0.00735902786254883,0.0000481640937183456
691,-0.00733852386474609,0.0000515668026380209
692,-0.00727510452270508,0.0000563848598196802
693,-0.00722503662109375,0.0000448594551294409
694,-0.00722503662109375,0.0000466691808056529
695,-0.00725936889648438,0.0000367682883850554
696,-0.00724697113037109,0.0000392363391896755
697,-0.00717401504516602,0.0000419901079568098
698,-0.00722789764404297,0.0000390380847334787
699,-0.0073084831237793,0.0000475356664679779
700,-0.00728893280029297,0.0000443881356282659
701,-0.00729846954345703,0.0000486595907219543
702,-0.00731515884399414,0.0000546316808336114
703,-0.00726699829101563,0.000052909589792939
704,-0.00734901428222656,0.000051455347279935
705,-0.00731849670410156,0.0000403279934664072
706,-0.00739049911499023,0.0000442868527259876
707,-0.00724124908447266,0.0000326920473727314
708,-0.00730562210083008,0.0000408350546991406
709,-0.00734519958496094,0.0000575878350276972
710,-0.00738906860351563,0.0000428477390578123
711,-0.0073847770690918,0.0000544972930395584
712,-0.00732707977294922,0.000050033830221461
713,-0.00728893280029297,0.0000591556806393863
714,-0.00725889205932617,0.0000581252565018941
715,-0.0072016716003418,0.0000409483475802884
716,-0.00713729858398438,0.0000472345656303381
717,-0.00714111328125,0.0000554455208184594
718,-0.00702095031738281,0.00004340135037311
719,-0.00695705413818359,0.0000377198989140483
720,-0.00694608688354492,0.0000537949668110664
721,-0.00687026977539063,0.0000528880984277431
722,-0.00676441192626953,0.0000565238109162022
723,-0.00675010681152344,0.0000435634523664842
724,-0.00667333602905273,0.0000462175507134621
725,-0.00662088394165039,0.0000531069022839579
726,-0.00658512115478516,0.0000465655350647277
727,-0.00659418106079102,0.0000463060195467868
728,-0.00654506683349609,0.0000496609360634193
729,-0.0064387321472168,0.0000426162789624202
730,-0.0063929557800293,0.0000517999685705077
731,-0.00641870498657227,0.0000514398789653573
732,-0.00644254684448242,0.0000423056956715216
733,-0.00642251968383789,0.0000406019210183742
734,-0.00634479522705078,0.000043076635956075
735,-0.00640630722045898,0.0000566122393322334
736,-0.00643730163574219,0.0000494153780459341
737,-0.00639438629150391,0.0000441956282780897
738,-0.00649213790893555,0.0000400798579963357
739,-0.00650882720947266,0.0000509189750591975
740,-0.00646066665649414,0.0000517494652085448
741,-0.00658464431762695,0.0000498494423130197
742,-0.00658464431762695,0.0000586005513644636
743,-0.00654077529907227,0.000059119154696897
744,-0.00660467147827148,0.0000480624890706413
745,-0.00655126571655273,0.0000423674578041519
746,-0.00654363632202148,0.0000608009449120142
747,-0.00650358200073242,0.0000408044186559731
748,-0.00653362274169922,0.0000307384337321268
749,-0.00650167465209961,0.0000499098417280433
750,-0.00641441345214844,0.0000387472370492615
751,-0.0063319206237793,0.0000385427802384358
752,-0.00639963150024414,0.0000348800758869283
753,-0.00633335113525391,0.0000525084106446256
754,-0.00635337829589844,0.0000606343025446763
755,-0.00631141662597656,0.0000561484612154076
756,-0.00617647171020508,0.0000531817745927904
757,-0.00610685348510742,0.0000497238508843563
758,-0.0060877799987793,0.0000378642933448823
759,-0.0061345100402832,0.0000457850587064042
760,-0.00602531433105469,0.000058297121085436
761,-0.00597095489501953,0.000045350949066384
762,-0.00602245330810547,0.0000329190360910286
763,-0.00588798522949219,0.0000413276445797568
764,-0.00579023361206055,0.0000511673156017696
765,-0.00581979751586914,0.0000508586564101158
766,-0.00590276718139648,0.0000552370106972918
767,-0.00592041015625,0.0000675764226457858
768,-0.00591564178466797,0.0000482301398154928
769,-0.00572395324707031,0.0000446867911645062
770,-0.005859375,0.000054334333546616
771,-0.00585651397705078,0.0000451726139410294
772,-0.00589704513549805,0.0000440810098606856
773,-0.00587034225463867,0.0000495750144514946
774,-0.00594758987426758,0.0000390911963136855
775,-0.0059657096862793,0.0000374514533815503
776,-0.00592374801635742,0.0000354274284763464
777,-0.00597620010375977,0.000034130516883202
778,-0.00595474243164063,0.0000336017979999915
779,-0.00594043731689453,0.0000487086297940355
780,-0.00591373443603516,0.0000453196029360222
781,-0.00599861145019531,0.0000537124834732248
782,-0.00603818893432617,0.0000453158399432864
783,-0.00598955154418945,0.0000444150200736809
784,-0.00593852996826172,0.0000388688099442542
785,-0.00609636306762695,0.0000461498560981153
786,-0.00595474243164063,0.000052209858341612
787,-0.00595235824584961,0.0000517055091442055
788,-0.00593805313110352,0.0000509992889498975
789,-0.00588607788085938,0.0000559161462461415
790,-0.00594520568847656,0.0000518153293884511
791,-0.00591516494750977,0.0000432622977823759
792,-0.00591945648193359,0.0000453722520651446
793,-0.00589418411254883,0.0000533248083455821
794,-0.00575590133666992,0.0000495268332389785
795,-0.00578641891479492,0.0000562819363511721
796,-0.0058131217956543,0.0000486852840153775
797,-0.00580024719238281,0.0000404061465190647
798,-0.005706787109375,0.0000477956411943406
799,-0.00573348999023438,0.0000467288250667517
800,-0.00563621520996094,0.0000461707904861723
801,-0.00567293167114258,0.0000430970847190028
802,-0.00563287734985352,0.0000426682671229329
803,-0.00566339492797852,0.0000476037785927228
804,-0.00552463531494141,0.0000401202578740653
805,-0.00558710098266602,0.0000537177746658409
806,-0.00555229187011719,0.0000504591955704142
807,-0.00548696517944336,0.0000559537471847559
808,-0.00560092926025391,0.000054565049189856
809,-0.00555801391601563,0.0000429729234347754
810,-0.00555849075317383,0.0000499178135456911
811,-0.00551509857177734,0.0000381290870699001
812,-0.00551795959472656,0.0000498243493533956
813,-0.0054783821105957,0.0000524802565794401
814,-0.00552034378051758,0.0000644524402202729
815,-0.00553178787231445,0.0000486116715293921
816,-0.00564765930175781,0.0000501371087006685
817,-0.00555181503295898,0.0000526910453872343
818,-0.00561714172363281,0.0000497067001942784
819,-0.00561714172363281,0.0000463097020804557
820,-0.00549697875976563,0.000040280041019642
821,-0.00548839569091797,0.0000534089547292687
822,-0.00559711456298828,0.000049979267685905
823,-0.00555992126464844,0.0000382206622300544
824,-0.0055842399597168,0.0000450314570543799
825,-0.0054926872253418,0.0000546930349690997
826,-0.00551748275756836,0.0000396549661374889
827,-0.00553464889526367,0.0000434157548526384
828,-0.00550603866577148,0.0000446918790378193
829,-0.00544118881225586,0.000037874800572034
830,-0.0053257942199707,0.00006152308164505
831,-0.00543785095214844,0.0000545108510072066
832,-0.00543975830078125,0.0000494832002890695
833,-0.00532627105712891,0.0000538593849881778
834,-0.00527238845825195,0.0000444047802994645
835,-0.00525093078613281,0.0000485168627904367
836,-0.00516843795776367,0.0000553583092012742
837,-0.0052642822265625,0.0000524369131160007
838,-0.00522327423095703,0.0000488752272036315
839,-0.00508642196655273,0.0000533706259951585
840,-0.00509357452392578,0.0000610537798601884
841,-0.00506687164306641,0.0000684290396840254
842,-0.00488710403442383,0.0000520692203320263
843,-0.00491046905517578,0.0000526176354375082
844,-0.00493669509887695,0.0000382741655358008
845,-0.00484132766723633,0.000053297085542385
846,-0.00494050979614258,0.0000701161437219244
847,-0.00482082366943359,0.0000608850286818421
848,-0.00483608245849609,0.0000531261652415911
849,-0.00482892990112305,0.0000530672842455891
850,-0.00483465194702148,0.0000672965739653832
851,-0.00471687316894531,0.0000528106570967138
852,-0.0046844482421875,0.0000422660398492527
853,-0.00472784042358398,0.0000616320097186084
854,-0.00477933883666992,0.0000590575862566483
855,-0.00474071502685547,0.0000467896081839244
856,-0.00475454330444336,0.0000560694401926384
857,-0.00478267669677734,0.0000649024245407005
858,-0.00477504730224609,0.000059304435009162
859,-0.00471305847167969,0.0000589718607973687
860,-0.00483417510986328,0.0000569256499516426
861,-0.00471925735473633,0.0000547397842691094
862,-0.00485754013061523,0.000049619712257701
863,-0.00486135482788086,0.0000476622533180433
864,-0.00485610961914063,0.0000408378386543319
865,-0.00482320785522461,0.0000427487903098569
866,-0.00487852096557617,0.000047419531453778
867,-0.00488662719726563,0.000047587058330778
868,-0.00486326217651367,0.0000452694039807225
869,-0.00494384765625,0.0000589680050413218
870,-0.00488662719726563,0.0000610630895352795
871,-0.00494861602783203,0.0000631444753923296
872,-0.0049290657043457,0.0000446791582681887
873,-0.00494003295898438,0.0000444827990412556
874,-0.00496196746826172,0.0000457279127690482
875,-0.00487422943115234,0.0000568337086010279
876,-0.0048828125,0.0000620603149229273
877,-0.00488710403442383,0.0000649654536163435
878,-0.00477027893066406,0.0000425154545589581
879,-0.00482177734375,0.0000511950813734497
880,-0.00470542907714844,0.0000650668720375659
881,-0.00480937957763672,0.000056524816561651
882,-0.00481557846069336,0.0000770693358191411
883,-0.0047459602355957,0.0000848462016722503
884,-0.00467586517333984,0.0000550049798862373
885,-0.00464010238647461,0.0000541771794789714
886,-0.00455617904663086,0.0000698920313284884
887,-0.00457048416137695,0.0000616061798076981
888,-0.00455856323242188,0.0000544764280389699
889,-0.00453805923461914,0.0000642864209989651
890,-0.00441884994506836,0.0000634229271814714
891,-0.00442171096801758,0.0000645088599183247
892,-0.00423240661621094,0.000059649450627591
893,-0.00422525405883789,0.0000483972098119143
894,-0.00429630279541016,0.0000622614952649843
895,-0.00419998168945313,0.0000421185163058731
896,-0.0041966438293457,0.0000498220675485649
897,-0.00413942337036133,0.0000580782960769369
898,-0.004119873046875,0.0000506492200649553
899,-0.00400876998901367,0.0000529793765205762
900,-0.00399589538574219,0.000067450128776331
